# Start of Energy Bin (keV), Effective Area (cm^2)
1.600000023841857910e+00,1.375593423843383789e+00
1.639999985694885254e+00,1.844677925109863281e+00
1.680000066757202148e+00,2.470017910003662109e+00
1.720000028610229492e+00,3.302734375000000000e+00
1.759999990463256836e+00,4.350244522094726562e+00
1.799999952316284180e+00,5.371921062469482422e+00
1.840000033378601074e+00,3.288672924041748047e+00
1.879999995231628418e+00,4.078608036041259766e+00
1.920000076293945312e+00,5.159965515136718750e+00
1.960000038146972656e+00,6.337003707885742188e+00
2.000000000000000000e+00,7.649999618530273438e+00
2.039999961853027344e+00,9.155635833740234375e+00
2.079999923706054688e+00,1.095257377624511719e+01
2.119999885559082031e+00,9.644580841064453125e+00
2.160000085830688477e+00,1.102355766296386719e+01
2.200000047683715820e+00,1.127694606781005859e+01
2.240000009536743164e+00,1.272729873657226562e+01
2.279999971389770508e+00,1.441132736206054688e+01
2.319999933242797852e+00,1.646801185607910156e+01
2.360000133514404297e+00,1.843054962158203125e+01
2.400000095367431641e+00,2.028414726257324219e+01
2.440000057220458984e+00,2.237739562988281250e+01
2.480000019073486328e+00,2.482404708862304688e+01
2.519999980926513672e+00,2.778065109252929688e+01
2.559999942779541016e+00,3.100629425048828125e+01
2.599999904632568359e+00,3.390060043334960938e+01
2.639999866485595703e+00,3.422170639038085938e+01
2.679999828338623047e+00,3.708918762207031250e+01
2.720000028610229492e+00,4.016401672363281250e+01
2.759999990463256836e+00,4.347721862792968750e+01
2.799999952316284180e+00,4.703073883056640625e+01
2.840000152587890625e+00,5.068282318115234375e+01
2.880000114440917969e+00,5.381222534179687500e+01
2.920000076293945312e+00,5.707606887817382812e+01
2.960000038146972656e+00,6.052544403076171875e+01
3.000000000000000000e+00,6.448007202148437500e+01
3.039999961853027344e+00,6.693661499023437500e+01
3.079999923706054688e+00,7.122149658203125000e+01
3.119999885559082031e+00,7.568930053710937500e+01
3.159999847412109375e+00,7.952697753906250000e+01
3.199999809265136719e+00,8.351125335693359375e+01
3.240000009536743164e+00,8.764875793457031250e+01
3.279999971389770508e+00,9.067095947265625000e+01
3.319999933242797852e+00,9.428170013427734375e+01
3.360000133514404297e+00,9.799781799316406250e+01
3.400000095367431641e+00,1.018232345581054688e+02
3.440000057220458984e+00,1.053064117431640625e+02
3.480000019073486328e+00,1.080249786376953125e+02
3.519999980926513672e+00,1.080243301391601562e+02
3.559999942779541016e+00,1.107724685668945312e+02
3.599999904632568359e+00,1.135750427246093750e+02
3.639999866485595703e+00,1.164036026000976562e+02
3.679999828338623047e+00,1.192672576904296875e+02
3.719999790191650391e+00,1.207070999145507812e+02
3.759999752044677734e+00,1.236515808105468750e+02
3.800000190734863281e+00,1.262120819091796875e+02
3.840000152587890625e+00,1.284864501953125000e+02
3.880000114440917969e+00,1.307651062011718750e+02
3.920000076293945312e+00,1.336379241943359375e+02
3.960000038146972656e+00,1.367388916015625000e+02
4.000000000000000000e+00,1.390412902832031250e+02
4.039999961853027344e+00,1.420614624023437500e+02
4.079999923706054688e+00,1.451161193847656250e+02
4.119999885559082031e+00,1.482060089111328125e+02
4.159999847412109375e+00,1.512914733886718750e+02
4.199999809265136719e+00,1.539020996093750000e+02
4.239999771118164062e+00,1.565245361328125000e+02
4.279999732971191406e+00,1.591647644042968750e+02
4.320000171661376953e+00,1.591590423583984375e+02
4.360000133514404297e+00,1.606523284912109375e+02
4.400000095367431641e+00,1.628808135986328125e+02
4.440000057220458984e+00,1.651159667968750000e+02
4.480000019073486328e+00,1.673644409179687500e+02
4.519999980926513672e+00,1.696221618652343750e+02
4.559999942779541016e+00,1.718811798095703125e+02
4.599999904632568359e+00,1.719639129638671875e+02
4.639999866485595703e+00,1.738401031494140625e+02
4.679999828338623047e+00,1.756210327148437500e+02
4.719999790191650391e+00,1.774005432128906250e+02
4.759999752044677734e+00,1.791793365478515625e+02
4.799999713897705078e+00,1.809528808593750000e+02
4.840000152587890625e+00,1.827170715332031250e+02
4.880000114440917969e+00,1.844767456054687500e+02
4.920000076293945312e+00,1.853208007812500000e+02
4.960000038146972656e+00,1.870780181884765625e+02
5.000000000000000000e+00,1.887859954833984375e+02
5.039999961853027344e+00,1.907432708740234375e+02
5.079999923706054688e+00,1.926643371582031250e+02
5.119999885559082031e+00,1.945848846435546875e+02
5.159999847412109375e+00,1.965047912597656250e+02
5.199999809265136719e+00,1.984212951660156250e+02
5.239999771118164062e+00,2.003359680175781250e+02
5.279999732971191406e+00,2.022528228759765625e+02
5.320000171661376953e+00,2.041733398437500000e+02
5.360000133514404297e+00,2.060964050292968750e+02
5.400000095367431641e+00,2.080190734863281250e+02
5.440000057220458984e+00,2.099398345947265625e+02
5.480000019073486328e+00,2.118628692626953125e+02
5.519999980926513672e+00,2.137887268066406250e+02
5.559999942779541016e+00,2.155755920410156250e+02
5.599999904632568359e+00,2.172165374755859375e+02
5.639999866485595703e+00,2.188559722900390625e+02
5.679999828338623047e+00,2.204944763183593750e+02
5.719999790191650391e+00,2.221324462890625000e+02
5.759999752044677734e+00,2.237692108154296875e+02
5.799999713897705078e+00,2.253879241943359375e+02
5.839999675750732422e+00,2.269896850585937500e+02
5.879999637603759766e+00,2.285907897949218750e+02
5.919999599456787109e+00,2.301913604736328125e+02
5.960000038146972656e+00,2.317910766601562500e+02
6.000000000000000000e+00,2.332041015625000000e+02
6.039999961853027344e+00,2.344270019531250000e+02
6.079999923706054688e+00,2.356456604003906250e+02
6.119999885559082031e+00,2.367532348632812500e+02
6.159999847412109375e+00,2.377840881347656250e+02
6.199999809265136719e+00,2.388192443847656250e+02
6.239999771118164062e+00,2.398585205078125000e+02
6.279999732971191406e+00,2.408932800292968750e+02
6.319999694824218750e+00,2.419237976074218750e+02
6.359999656677246094e+00,2.429497070312500000e+02
6.399999618530273438e+00,2.439669189453125000e+02
6.439999580383300781e+00,2.449757232666015625e+02
6.480000019073486328e+00,2.459799194335937500e+02
6.519999980926513672e+00,2.469803771972656250e+02
6.559999942779541016e+00,2.479767150878906250e+02
6.599999904632568359e+00,2.489654083251953125e+02
6.639999866485595703e+00,2.499463500976562500e+02
6.679999828338623047e+00,2.509238433837890625e+02
6.719999790191650391e+00,2.518484497070312500e+02
6.759999752044677734e+00,2.526667175292968750e+02
6.799999713897705078e+00,2.534722290039062500e+02
6.839999675750732422e+00,2.542654113769531250e+02
6.879999637603759766e+00,2.550548400878906250e+02
6.919999599456787109e+00,2.558403015136718750e+02
6.959999561309814453e+00,2.566218872070312500e+02
7.000000000000000000e+00,2.573408508300781250e+02
7.039999961853027344e+00,2.579963378906250000e+02
7.079999923706054688e+00,2.586492309570312500e+02
7.119999885559082031e+00,2.579262084960937500e+02
7.159999847412109375e+00,2.585596923828125000e+02
7.199999809265136719e+00,2.592220458984375000e+02
7.239999771118164062e+00,2.599133911132812500e+02
7.279999732971191406e+00,2.606015319824218750e+02
7.319999694824218750e+00,2.612864074707031250e+02
7.359999656677246094e+00,2.619677124023437500e+02
7.399999618530273438e+00,2.626392822265625000e+02
7.439999580383300781e+00,2.633008728027343750e+02
7.479999542236328125e+00,2.639599304199218750e+02
7.519999980926513672e+00,2.646155395507812500e+02
7.559999942779541016e+00,2.652681884765625000e+02
7.599999904632568359e+00,2.659129638671875000e+02
7.639999866485595703e+00,2.665496826171875000e+02
7.679999828338623047e+00,2.671834106445312500e+02
7.719999790191650391e+00,2.678147888183593750e+02
7.759999752044677734e+00,2.684439086914062500e+02
7.799999713897705078e+00,2.690666503906250000e+02
7.839999675750732422e+00,2.696826171875000000e+02
7.879999637603759766e+00,2.702964172363281250e+02
7.919999599456787109e+00,2.709076538085937500e+02
7.959999561309814453e+00,2.715163574218750000e+02
7.999999523162841797e+00,2.721054687500000000e+02
8.039999961853027344e+00,2.726745910644531250e+02
8.079999923706054688e+00,2.732415771484375000e+02
8.119999885559082031e+00,2.738066101074218750e+02
8.159999847412109375e+00,2.742989501953125000e+02
8.199999809265136719e+00,2.747838134765625000e+02
8.239999771118164062e+00,2.752290649414062500e+02
8.279999732971191406e+00,2.755758972167968750e+02
8.319999694824218750e+00,2.759202270507812500e+02
8.359999656677246094e+00,2.762621459960937500e+02
8.399999618530273438e+00,2.765952148437500000e+02
8.439999580383300781e+00,2.769196472167968750e+02
8.479999542236328125e+00,2.772414245605468750e+02
8.520000457763671875e+00,2.775614624023437500e+02
8.560000419616699219e+00,2.778790893554687500e+02
8.600000381469726562e+00,2.781860656738281250e+02
8.640000343322753906e+00,2.784822692871093750e+02
8.680000305175781250e+00,2.787760620117187500e+02
8.720000267028808594e+00,2.790676879882812500e+02
8.760000228881835938e+00,2.793575439453125000e+02
8.800000190734863281e+00,2.796358642578125000e+02
8.840000152587890625e+00,2.799025878906250000e+02
8.880000114440917969e+00,2.801676940917968750e+02
8.920000076293945312e+00,2.804311828613281250e+02
8.960000038146972656e+00,2.806538391113281250e+02
9.000000000000000000e+00,2.808410034179687500e+02
9.039999961853027344e+00,2.810141296386718750e+02
9.079999923706054688e+00,2.811852722167968750e+02
9.119999885559082031e+00,2.813822326660156250e+02
9.159999847412109375e+00,2.817142944335937500e+02
9.199999809265136719e+00,2.820277404785156250e+02
9.239999771118164062e+00,2.823227539062500000e+02
9.279999732971191406e+00,2.826158752441406250e+02
9.319999694824218750e+00,2.829076538085937500e+02
9.359999656677246094e+00,2.831975708007812500e+02
9.399999618530273438e+00,2.834588317871093750e+02
9.439999580383300781e+00,2.836917114257812500e+02
9.479999542236328125e+00,2.839227905273437500e+02
9.519999504089355469e+00,2.841521606445312500e+02
9.560000419616699219e+00,2.843800048828125000e+02
9.600000381469726562e+00,2.845048522949218750e+02
9.640000343322753906e+00,2.845523376464843750e+02
9.680000305175781250e+00,2.846761779785156250e+02
9.720000267028808594e+00,2.847983093261718750e+02
9.760000228881835938e+00,2.849183959960937500e+02
9.800000190734863281e+00,2.847801513671875000e+02
9.840000152587890625e+00,2.843739318847656250e+02
9.880000114440917969e+00,2.839385986328125000e+02
9.920000076293945312e+00,2.835005493164062500e+02
9.960000038146972656e+00,2.836167297363281250e+02
1.000000000000000000e+01,2.810202636718750000e+02
1.003999996185302734e+01,2.752794494628906250e+02
1.007999992370605469e+01,2.694893188476562500e+02
1.011999988555908203e+01,2.636502380371093750e+02
1.015999984741210938e+01,2.577627258300781250e+02
1.019999980926513672e+01,2.509702911376953125e+02
1.023999977111816406e+01,2.510715332031250000e+02
1.027999973297119141e+01,2.511634826660156250e+02
1.032000064849853516e+01,2.512463989257812500e+02
1.036000061035156250e+01,2.513205718994140625e+02
1.040000057220458984e+01,2.523528747558593750e+02
1.044000053405761719e+01,2.540040283203125000e+02
1.048000049591064453e+01,2.546009674072265625e+02
1.052000045776367188e+01,2.551944885253906250e+02
1.056000041961669922e+01,2.557843170166015625e+02
1.060000038146972656e+01,2.558746032714843750e+02
1.064000034332275391e+01,2.554668579101562500e+02
1.068000030517578125e+01,2.550581054687500000e+02
1.072000026702880859e+01,2.546481323242187500e+02
1.076000022888183594e+01,2.542370605468750000e+02
1.080000019073486328e+01,2.537143249511718750e+02
1.084000015258789062e+01,2.530628967285156250e+02
1.088000011444091797e+01,2.524030761718750000e+02
1.092000007629394531e+01,2.517430267333984375e+02
1.096000003814697266e+01,2.510824432373046875e+02
1.100000000000000000e+01,2.503124237060546875e+02
1.103999996185302734e+01,2.494329833984375000e+02
1.107999992370605469e+01,2.485538635253906250e+02
1.111999988555908203e+01,2.486120300292968750e+02
1.115999984741210938e+01,2.486674499511718750e+02
1.119999980926513672e+01,2.482479248046875000e+02
1.123999977111816406e+01,2.473499145507812500e+02
1.127999973297119141e+01,2.464447479248046875e+02
1.131999969482421875e+01,2.455318298339843750e+02
1.136000061035156250e+01,2.446121826171875000e+02
1.140000057220458984e+01,2.424480285644531250e+02
1.144000053405761719e+01,2.390312957763671875e+02
1.148000049591064453e+01,2.355959014892578125e+02
1.152000045776367188e+01,2.319169006347656250e+02
1.156000041961669922e+01,2.216581878662109375e+02
1.160000038146972656e+01,2.188568572998046875e+02
1.164000034332275391e+01,2.180882263183593750e+02
1.168000030517578125e+01,2.173124847412109375e+02
1.172000026702880859e+01,2.165261840820312500e+02
1.176000022888183594e+01,2.157301025390625000e+02
1.180000019073486328e+01,2.148652954101562500e+02
1.184000015258789062e+01,2.139364318847656250e+02
1.188000011444091797e+01,2.130062408447265625e+02
1.192000007629394531e+01,2.120674133300781250e+02
1.196000003814697266e+01,2.111211547851562500e+02
1.200000000000000000e+01,2.100344543457031250e+02
1.203999996185302734e+01,2.088079833984375000e+02
1.207999992370605469e+01,2.079320220947265625e+02
1.211999988555908203e+01,2.080839233398437500e+02
1.215999984741210938e+01,2.082353820800781250e+02
1.219999980926513672e+01,2.083392333984375000e+02
1.223999977111816406e+01,2.083951110839843750e+02
1.227999973297119141e+01,2.084500732421875000e+02
1.231999969482421875e+01,2.085042114257812500e+02
1.236000061035156250e+01,2.085574035644531250e+02
1.240000057220458984e+01,2.085165100097656250e+02
1.244000053405761719e+01,2.083819580078125000e+02
1.248000049591064453e+01,2.082462463378906250e+02
1.252000045776367188e+01,2.081097717285156250e+02
1.256000041961669922e+01,2.079726257324218750e+02
1.260000038146972656e+01,2.077791137695312500e+02
1.264000034332275391e+01,2.075290069580078125e+02
1.268000030517578125e+01,2.072784423828125000e+02
1.272000026702880859e+01,2.070267639160156250e+02
1.276000022888183594e+01,2.067743835449218750e+02
1.280000019073486328e+01,2.064884643554687500e+02
1.284000015258789062e+01,2.061687774658203125e+02
1.288000011444091797e+01,2.058490905761718750e+02
1.292000007629394531e+01,2.055289306640625000e+02
1.296000003814697266e+01,2.052079162597656250e+02
1.300000000000000000e+01,2.047004547119140625e+02
1.303999996185302734e+01,2.040067138671875000e+02
1.307999992370605469e+01,2.033125762939453125e+02
1.311999988555908203e+01,2.026106262207031250e+02
1.315999984741210938e+01,2.019058837890625000e+02
1.319999980926513672e+01,2.010978393554687500e+02
1.323999977111816406e+01,2.001873779296875000e+02
1.327999973297119141e+01,1.989806213378906250e+02
1.331999969482421875e+01,1.958793945312500000e+02
1.335999965667724609e+01,1.946864013671875000e+02
1.340000057220458984e+01,1.938529968261718750e+02
1.344000053405761719e+01,1.933242797851562500e+02
1.348000049591064453e+01,1.927947235107421875e+02
1.352000045776367188e+01,1.922644653320312500e+02
1.356000041961669922e+01,1.917336883544921875e+02
1.360000038146972656e+01,1.911618804931640625e+02
1.364000034332275391e+01,1.905490264892578125e+02
1.368000030517578125e+01,1.899349822998046875e+02
1.372000026702880859e+01,1.893205718994140625e+02
1.376000022888183594e+01,1.887052459716796875e+02
1.380000019073486328e+01,1.880354003906250000e+02
1.384000015258789062e+01,1.866338195800781250e+02
1.388000011444091797e+01,1.858851623535156250e+02
1.392000007629394531e+01,1.854715118408203125e+02
1.396000003814697266e+01,1.850588073730468750e+02
1.400000000000000000e+01,1.846940612792968750e+02
1.403999996185302734e+01,1.843775787353515625e+02
1.407999992370605469e+01,1.840604705810546875e+02
1.411999988555908203e+01,1.837424926757812500e+02
1.415999984741210938e+01,1.834237518310546875e+02
1.419999980926513672e+01,1.831061096191406250e+02
1.423999977111816406e+01,1.827892303466796875e+02
1.427999973297119141e+01,1.824716186523437500e+02
1.431999969482421875e+01,1.821538391113281250e+02
1.435999965667724609e+01,1.818355407714843750e+02
1.439999961853027344e+01,1.814971160888671875e+02
1.444000053405761719e+01,1.811331481933593750e+02
1.448000049591064453e+01,1.807689819335937500e+02
1.452000045776367188e+01,1.804047241210937500e+02
1.456000041961669922e+01,1.800400848388671875e+02
1.460000038146972656e+01,1.796680603027343750e+02
1.464000034332275391e+01,1.792888488769531250e+02
1.468000030517578125e+01,1.789094696044921875e+02
1.472000026702880859e+01,1.785298461914062500e+02
1.476000022888183594e+01,1.781499633789062500e+02
1.480000019073486328e+01,1.777652282714843750e+02
1.484000015258789062e+01,1.773756103515625000e+02
1.488000011444091797e+01,1.769854125976562500e+02
1.492000007629394531e+01,1.765949707031250000e+02
1.496000003814697266e+01,1.762044372558593750e+02
1.500000000000000000e+01,1.758088226318359375e+02
1.503999996185302734e+01,1.754082641601562500e+02
1.507999992370605469e+01,1.750075073242187500e+02
1.511999988555908203e+01,1.746064147949218750e+02
1.515999984741210938e+01,1.742052917480468750e+02
1.519999980926513672e+01,1.737973632812500000e+02
1.523999977111816406e+01,1.733824768066406250e+02
1.527999973297119141e+01,1.729675140380859375e+02
1.531999969482421875e+01,1.725525207519531250e+02
1.535999965667724609e+01,1.721371459960937500e+02
1.539999961853027344e+01,1.717197418212890625e+02
1.544000053405761719e+01,1.713000335693359375e+02
1.548000049591064453e+01,1.708802032470703125e+02
1.552000045776367188e+01,1.704662780761718750e+02
1.556000041961669922e+01,1.700521087646484375e+02
1.560000038146972656e+01,1.696433410644531250e+02
1.564000034332275391e+01,1.692397766113281250e+02
1.568000030517578125e+01,1.688358306884765625e+02
1.572000026702880859e+01,1.684733581542968750e+02
1.576000022888183594e+01,1.681110687255859375e+02
1.580000019073486328e+01,1.677378540039062500e+02
1.584000015258789062e+01,1.673534851074218750e+02
1.588000011444091797e+01,1.669655456542968750e+02
1.592000007629394531e+01,1.665826263427734375e+02
1.596000003814697266e+01,1.661996917724609375e+02
1.600000000000000000e+01,1.658133850097656250e+02
1.603999900817871094e+01,1.654240417480468750e+02
1.607999992370605469e+01,1.650342864990234375e+02
1.611999893188476562e+01,1.646442565917968750e+02
1.615999984741210938e+01,1.642537536621093750e+02
1.619999885559082031e+01,1.638630523681640625e+02
1.623999977111816406e+01,1.634718627929687500e+02
1.627999877929687500e+01,1.630805053710937500e+02
1.631999969482421875e+01,1.626886901855468750e+02
1.635999870300292969e+01,1.622966003417968750e+02
1.639999961853027344e+01,1.619040985107421875e+02
1.643999862670898438e+01,1.615113983154296875e+02
1.647999954223632812e+01,1.611183929443359375e+02
1.652000045776367188e+01,1.607239074707031250e+02
1.655999946594238281e+01,1.603291931152343750e+02
1.660000038146972656e+01,1.599340209960937500e+02
1.663999938964843750e+01,1.595386352539062500e+02
1.668000030517578125e+01,1.591429443359375000e+02
1.671999931335449219e+01,1.587470550537109375e+02
1.676000022888183594e+01,1.583507690429687500e+02
1.679999923706054688e+01,1.579540252685546875e+02
1.684000015258789062e+01,1.575571899414062500e+02
1.687999916076660156e+01,1.571598205566406250e+02
1.692000007629394531e+01,1.567676849365234375e+02
1.695999908447265625e+01,1.563750762939453125e+02
1.700000000000000000e+01,1.559942779541015625e+02
1.703999900817871094e+01,1.556250915527343750e+02
1.707999992370605469e+01,1.552554473876953125e+02
1.711999893188476562e+01,1.548752593994140625e+02
1.715999984741210938e+01,1.544946899414062500e+02
1.719999885559082031e+01,1.541139068603515625e+02
1.723999977111816406e+01,1.537329406738281250e+02
1.727999877929687500e+01,1.533733825683593750e+02
1.731999969482421875e+01,1.530256042480468750e+02
1.735999870300292969e+01,1.526775512695312500e+02
1.739999961853027344e+01,1.523290405273437500e+02
1.743999862670898438e+01,1.519794616699218750e+02
1.747999954223632812e+01,1.516278381347656250e+02
