# Start of Energy Bin (keV), Effective Area (cm^2)
1.600000023841857910e+00,1.541935086250305176e+00
1.639999985694885254e+00,2.063277721405029297e+00
1.680000066757202148e+00,2.756739616394042969e+00
1.720000028610229492e+00,3.678114414215087891e+00
1.759999990463256836e+00,4.834132194519042969e+00
1.799999952316284180e+00,5.950857639312744141e+00
1.840000033378601074e+00,3.629642724990844727e+00
1.879999995231628418e+00,4.496313571929931641e+00
1.920000076293945312e+00,5.696248054504394531e+00
1.960000038146972656e+00,7.005231857299804688e+00
2.000000000000000000e+00,8.471160888671875000e+00
2.039999961853027344e+00,1.015918350219726562e+01
2.079999923706054688e+00,1.217791748046875000e+01
2.119999885559082031e+00,1.073341178894042969e+01
2.160000085830688477e+00,1.227188301086425781e+01
2.200000047683715820e+00,1.255599403381347656e+01
2.240000009536743164e+00,1.417094326019287109e+01
2.279999971389770508e+00,1.604681205749511719e+01
2.319999933242797852e+00,1.834449958801269531e+01
2.360000133514404297e+00,2.053917121887207031e+01
2.400000095367431641e+00,2.261316299438476562e+01
2.440000057220458984e+00,2.495479393005371094e+01
2.480000019073486328e+00,2.769216537475585938e+01
2.519999980926513672e+00,3.100143814086914062e+01
2.559999942779541016e+00,3.461051559448242188e+01
2.599999904632568359e+00,3.784682846069335938e+01
2.639999866485595703e+00,3.821073150634765625e+01
2.679999828338623047e+00,4.141338348388671875e+01
2.720000028610229492e+00,4.484693908691406250e+01
2.759999990463256836e+00,4.854669952392578125e+01
2.799999952316284180e+00,5.251423645019531250e+01
2.840000152587890625e+00,5.659445571899414062e+01
2.880000114440917969e+00,6.009286499023437500e+01
2.920000076293945312e+00,6.374182891845703125e+01
2.960000038146972656e+00,6.759848022460937500e+01
3.000000000000000000e+00,7.175428771972656250e+01
3.039999961853027344e+00,7.395143890380859375e+01
3.079999923706054688e+00,7.812306976318359375e+01
3.119999885559082031e+00,8.243630981445312500e+01
3.159999847412109375e+00,8.600906372070312500e+01
3.199999809265136719e+00,8.969123077392578125e+01
3.240000009536743164e+00,9.348783111572265625e+01
3.279999971389770508e+00,9.605043029785156250e+01
3.319999933242797852e+00,1.010740585327148438e+02
3.360000133514404297e+00,1.063282623291015625e+02
3.400000095367431641e+00,1.118008575439453125e+02
3.440000057220458984e+00,1.159503784179687500e+02
3.480000019073486328e+00,1.189200820922851562e+02
3.519999980926513672e+00,1.188998870849609375e+02
3.559999942779541016e+00,1.219045257568359375e+02
3.599999904632568359e+00,1.249677886962890625e+02
3.639999866485595703e+00,1.280583648681640625e+02
3.679999828338623047e+00,1.311862487792968750e+02
3.719999790191650391e+00,1.327445373535156250e+02
3.759999752044677734e+00,1.359564056396484375e+02
3.800000190734863281e+00,1.387443542480468750e+02
3.840000152587890625e+00,1.412161865234375000e+02
3.880000114440917969e+00,1.436914672851562500e+02
3.920000076293945312e+00,1.468476104736328125e+02
3.960000038146972656e+00,1.502643432617187500e+02
4.000000000000000000e+00,1.528035888671875000e+02
4.039999961853027344e+00,1.561316070556640625e+02
4.079999923706054688e+00,1.594979248046875000e+02
4.119999885559082031e+00,1.629005126953125000e+02
4.159999847412109375e+00,1.662984924316406250e+02
4.199999809265136719e+00,1.691744384765625000e+02
4.239999771118164062e+00,1.720632019042968750e+02
4.279999732971191406e+00,1.749717102050781250e+02
4.320000171661376953e+00,1.749777374267578125e+02
4.360000133514404297e+00,1.766416320800781250e+02
4.400000095367431641e+00,1.791174468994140625e+02
4.440000057220458984e+00,1.816010131835937500e+02
4.480000019073486328e+00,1.841000061035156250e+02
4.519999980926513672e+00,1.866054992675781250e+02
4.559999942779541016e+00,1.891130371093750000e+02
4.599999904632568359e+00,1.892261657714843750e+02
4.639999866485595703e+00,1.913127441406250000e+02
4.679999828338623047e+00,1.932949981689453125e+02
4.719999790191650391e+00,1.952784729003906250e+02
4.759999752044677734e+00,1.972616882324218750e+02
4.799999713897705078e+00,1.992393341064453125e+02
4.840000152587890625e+00,2.012068786621093750e+02
4.880000114440917969e+00,2.031699981689453125e+02
4.920000076293945312e+00,2.041239013671875000e+02
4.960000038146972656e+00,2.060840148925781250e+02
5.000000000000000000e+00,2.079900054931640625e+02
5.039999961853027344e+00,2.100339660644531250e+02
5.079999923706054688e+00,2.119466552734375000e+02
5.119999885559082031e+00,2.138555450439453125e+02
5.159999847412109375e+00,2.157604370117187500e+02
5.199999809265136719e+00,2.176579742431640625e+02
5.239999771118164062e+00,2.195498657226562500e+02
5.279999732971191406e+00,2.214409332275390625e+02
5.320000171661376953e+00,2.233328399658203125e+02
5.360000133514404297e+00,2.252243499755859375e+02
5.400000095367431641e+00,2.271117858886718750e+02
5.440000057220458984e+00,2.289935455322265625e+02
5.480000019073486328e+00,2.308746032714843750e+02
5.519999980926513672e+00,2.327499084472656250e+02
5.559999942779541016e+00,2.344707641601562500e+02
5.599999904632568359e+00,2.360297241210937500e+02
5.639999866485595703e+00,2.375839233398437500e+02
5.679999828338623047e+00,2.391344604492187500e+02
5.719999790191650391e+00,2.406933593750000000e+02
5.759999752044677734e+00,2.422485504150390625e+02
5.799999713897705078e+00,2.437807922363281250e+02
5.839999675750732422e+00,2.452912902832031250e+02
5.879999637603759766e+00,2.467987518310546875e+02
5.919999599456787109e+00,2.482972412109375000e+02
5.960000038146972656e+00,2.497923278808593750e+02
6.000000000000000000e+00,2.511618652343750000e+02
6.039999961853027344e+00,2.524032135009765625e+02
6.079999923706054688e+00,2.536392822265625000e+02
6.119999885559082031e+00,2.547534332275390625e+02
6.159999847412109375e+00,2.557843627929687500e+02
6.199999809265136719e+00,2.568192138671875000e+02
6.239999771118164062e+00,2.578576049804687500e+02
6.279999732971191406e+00,2.588906250000000000e+02
6.319999694824218750e+00,2.599219970703125000e+02
6.359999656677246094e+00,2.609478149414062500e+02
6.399999618530273438e+00,2.619628906250000000e+02
6.439999580383300781e+00,2.629675903320312500e+02
6.480000019073486328e+00,2.639667663574218750e+02
6.519999980926513672e+00,2.649547119140625000e+02
6.559999942779541016e+00,2.659376220703125000e+02
6.599999904632568359e+00,2.669107971191406250e+02
6.639999866485595703e+00,2.678741455078125000e+02
6.679999828338623047e+00,2.688331604003906250e+02
6.719999790191650391e+00,2.697445983886718750e+02
6.759999752044677734e+00,2.705416870117187500e+02
6.799999713897705078e+00,2.713231811523437500e+02
6.839999675750732422e+00,2.720895996093750000e+02
6.879999637603759766e+00,2.728515319824218750e+02
6.919999599456787109e+00,2.736036376953125000e+02
6.959999561309814453e+00,2.743511352539062500e+02
7.000000000000000000e+00,2.750263671875000000e+02
7.039999961853027344e+00,2.756283874511718750e+02
7.079999923706054688e+00,2.762271728515625000e+02
7.119999885559082031e+00,2.753519287109375000e+02
7.159999847412109375e+00,2.759249877929687500e+02
7.199999809265136719e+00,2.765164489746093750e+02
7.239999771118164062e+00,2.771263427734375000e+02
7.279999732971191406e+00,2.777322387695312500e+02
7.319999694824218750e+00,2.783439941406250000e+02
7.359999656677246094e+00,2.789513549804687500e+02
7.399999618530273438e+00,2.795467529296875000e+02
7.439999580383300781e+00,2.801297607421875000e+02
7.479999542236328125e+00,2.807096252441406250e+02
7.519999980926513672e+00,2.812802429199218750e+02
7.559999942779541016e+00,2.818472595214843750e+02
7.599999904632568359e+00,2.824023437500000000e+02
7.639999866485595703e+00,2.829452514648437500e+02
7.679999828338623047e+00,2.834845275878906250e+02
7.719999790191650391e+00,2.840207519531250000e+02
7.759999752044677734e+00,2.845541076660156250e+02
7.799999713897705078e+00,2.850761108398437500e+02
7.839999675750732422e+00,2.855864257812500000e+02
7.879999637603759766e+00,2.860939025878906250e+02
7.919999599456787109e+00,2.865981445312500000e+02
7.959999561309814453e+00,2.870991821289062500e+02
7.999999523162841797e+00,2.875758666992187500e+02
8.039999961853027344e+00,2.880277404785156250e+02
8.079999923706054688e+00,2.884768676757812500e+02
8.119999885559082031e+00,2.889245605468750000e+02
8.159999847412109375e+00,2.892951049804687500e+02
8.199999809265136719e+00,2.896481323242187500e+02
8.239999771118164062e+00,2.899975585937500000e+02
8.279999732971191406e+00,2.903864746093750000e+02
8.319999694824218750e+00,2.907716064453125000e+02
8.359999656677246094e+00,2.911543273925781250e+02
8.399999618530273438e+00,2.915123901367187500e+02
8.439999580383300781e+00,2.918460083007812500e+02
8.479999542236328125e+00,2.921767883300781250e+02
8.520000457763671875e+00,2.925056762695312500e+02
8.560000419616699219e+00,2.928319091796875000e+02
8.600000381469726562e+00,2.931203002929687500e+02
8.640000343322753906e+00,2.933706359863281250e+02
8.680000305175781250e+00,2.936182250976562500e+02
8.720000267028808594e+00,2.938632812500000000e+02
8.760000228881835938e+00,2.941062316894531250e+02
8.800000190734863281e+00,2.942950439453125000e+02
8.840000152587890625e+00,2.944294433593750000e+02
8.880000114440917969e+00,2.945617065429687500e+02
8.920000076293945312e+00,2.946918334960937500e+02
8.960000038146972656e+00,2.947786254882812500e+02
9.000000000000000000e+00,2.947774353027343750e+02
9.039999961853027344e+00,2.947106933593750000e+02
9.079999923706054688e+00,2.946412353515625000e+02
9.119999885559082031e+00,2.946018066406250000e+02
9.159999847412109375e+00,2.947202758789062500e+02
9.199999809265136719e+00,2.947729187011718750e+02
9.239999771118164062e+00,2.947597961425781250e+02
9.279999732971191406e+00,2.947434997558593750e+02
9.319999694824218750e+00,2.947266845703125000e+02
9.359999656677246094e+00,2.947066955566406250e+02
9.399999618530273438e+00,2.946171264648437500e+02
9.439999580383300781e+00,2.944581298828125000e+02
9.479999542236328125e+00,2.942960205078125000e+02
9.519999504089355469e+00,2.941318664550781250e+02
9.560000419616699219e+00,2.939649353027343750e+02
9.600000381469726562e+00,2.936477050781250000e+02
9.640000343322753906e+00,2.932071228027343750e+02
9.680000305175781250e+00,2.928440551757812500e+02
9.720000267028808594e+00,2.924749755859375000e+02
9.760000228881835938e+00,2.921025695800781250e+02
9.800000190734863281e+00,2.913099365234375000e+02
9.840000152587890625e+00,2.900883789062500000e+02
9.880000114440917969e+00,2.888377075195312500e+02
9.920000076293945312e+00,2.875913391113281250e+02
9.960000038146972656e+00,2.868981933593750000e+02
1.000000000000000000e+01,2.835240783691406250e+02
1.003999996185302734e+01,2.770596923828125000e+02
1.007999992370605469e+01,2.705711669921875000e+02
1.011999988555908203e+01,2.640538635253906250e+02
1.015999984741210938e+01,2.575146484375000000e+02
1.019999980926513672e+01,2.502972259521484375e+02
1.023999977111816406e+01,2.506591644287109375e+02
1.027999973297119141e+01,2.510114746093750000e+02
1.032000064849853516e+01,2.513556518554687500e+02
1.036000061035156250e+01,2.516907348632812500e+02
1.040000057220458984e+01,2.529542541503906250e+02
1.044000053405761719e+01,2.547048187255859375e+02
1.048000049591064453e+01,2.550874328613281250e+02
1.052000045776367188e+01,2.554624786376953125e+02
1.056000041961669922e+01,2.558312072753906250e+02
1.060000038146972656e+01,2.556043853759765625e+02
1.064000034332275391e+01,2.547857360839843750e+02
1.068000030517578125e+01,2.539662780761718750e+02
1.072000026702880859e+01,2.531458282470703125e+02
1.076000022888183594e+01,2.523244628906250000e+02
1.080000019073486328e+01,2.513899536132812500e+02
1.084000015258789062e+01,2.503259582519531250e+02
1.088000011444091797e+01,2.492547912597656250e+02
1.092000007629394531e+01,2.481915588378906250e+02
1.096000003814697266e+01,2.471288452148437500e+02
1.100000000000000000e+01,2.459614562988281250e+02
1.103999996185302734e+01,2.446899871826171875e+02
1.107999992370605469e+01,2.434205169677734375e+02
1.111999988555908203e+01,2.433394470214843750e+02
1.115999984741210938e+01,2.432559204101562500e+02
1.119999980926513672e+01,2.426697998046875000e+02
1.123999977111816406e+01,2.415789794921875000e+02
1.127999973297119141e+01,2.404830169677734375e+02
1.131999969482421875e+01,2.393868103027343750e+02
1.136000061035156250e+01,2.382859191894531250e+02
1.140000057220458984e+01,2.359983825683593750e+02
1.144000053405761719e+01,2.325184326171875000e+02
1.148000049591064453e+01,2.290250701904296875e+02
1.152000045776367188e+01,2.253056793212890625e+02
1.156000041961669922e+01,2.152624053955078125e+02
1.160000038146972656e+01,2.124996643066406250e+02
1.164000034332275391e+01,2.117465515136718750e+02
1.168000030517578125e+01,2.109868164062500000e+02
1.172000026702880859e+01,2.102182464599609375e+02
1.176000022888183594e+01,2.094403991699218750e+02
1.180000019073486328e+01,2.085708160400390625e+02
1.184000015258789062e+01,2.076142272949218750e+02
1.188000011444091797e+01,2.066568298339843750e+02
1.192000007629394531e+01,2.057078704833984375e+02
1.196000003814697266e+01,2.047520141601562500e+02
1.200000000000000000e+01,2.036476135253906250e+02
1.203999996185302734e+01,2.023955993652343750e+02
1.207999992370605469e+01,2.015195312500000000e+02
1.211999988555908203e+01,2.017079620361328125e+02
1.215999984741210938e+01,2.018954620361328125e+02
1.219999980926513672e+01,2.020169372558593750e+02
1.223999977111816406e+01,2.020719604492187500e+02
1.227999973297119141e+01,2.021260375976562500e+02
1.231999969482421875e+01,2.022137756347656250e+02
1.236000061035156250e+01,2.023005828857421875e+02
1.240000057220458984e+01,2.022773742675781250e+02
1.244000053405761719e+01,2.021445617675781250e+02
1.248000049591064453e+01,2.020106201171875000e+02
1.252000045776367188e+01,2.018415985107421875e+02
1.256000041961669922e+01,2.016719207763671875e+02
1.260000038146972656e+01,2.014349365234375000e+02
1.264000034332275391e+01,2.011304779052734375e+02
1.268000030517578125e+01,2.008257293701171875e+02
1.272000026702880859e+01,2.005373840332031250e+02
1.276000022888183594e+01,2.002484588623046875e+02
1.280000019073486328e+01,1.999135284423828125e+02
1.284000015258789062e+01,1.995324401855468750e+02
1.288000011444091797e+01,1.991515655517578125e+02
1.292000007629394531e+01,1.987869110107421875e+02
1.296000003814697266e+01,1.984216003417968750e+02
1.300000000000000000e+01,1.978479614257812500e+02
1.303999996185302734e+01,1.970666198730468750e+02
1.307999992370605469e+01,1.962856750488281250e+02
1.311999988555908203e+01,1.954656372070312500e+02
1.315999984741210938e+01,1.946439208984375000e+02
1.319999980926513672e+01,1.937014923095703125e+02
1.323999977111816406e+01,1.926398315429687500e+02
1.327999973297119141e+01,1.914139099121093750e+02
1.331999969482421875e+01,1.884055480957031250e+02
1.335999965667724609e+01,1.872867126464843750e+02
1.340000057220458984e+01,1.865102844238281250e+02
1.344000053405761719e+01,1.860057678222656250e+02
1.348000049591064453e+01,1.855004119873046875e+02
1.352000045776367188e+01,1.849635925292968750e+02
1.356000041961669922e+01,1.844264373779296875e+02
1.360000038146972656e+01,1.838269805908203125e+02
1.364000034332275391e+01,1.831654968261718750e+02
1.368000030517578125e+01,1.825032958984375000e+02
1.372000026702880859e+01,1.818721313476562500e+02
1.376000022888183594e+01,1.812403259277343750e+02
1.380000019073486328e+01,1.805521240234375000e+02
1.384000015258789062e+01,1.791575622558593750e+02
1.388000011444091797e+01,1.784245910644531250e+02
1.392000007629394531e+01,1.780086669921875000e+02
1.396000003814697266e+01,1.775937194824218750e+02
1.400000000000000000e+01,1.772182006835937500e+02
1.403999996185302734e+01,1.768824615478515625e+02
1.407999992370605469e+01,1.765461730957031250e+02
1.411999988555908203e+01,1.762097930908203125e+02
1.415999984741210938e+01,1.758727874755859375e+02
1.419999980926513672e+01,1.755309906005859375e+02
1.423999977111816406e+01,1.751841125488281250e+02
1.427999973297119141e+01,1.748366699218750000e+02
1.431999969482421875e+01,1.744885101318359375e+02
1.435999965667724609e+01,1.741399230957031250e+02
1.439999961853027344e+01,1.737701416015625000e+02
1.444000053405761719e+01,1.733739318847656250e+02
1.448000049591064453e+01,1.729776611328125000e+02
1.452000045776367188e+01,1.725814819335937500e+02
1.456000041961669922e+01,1.721850585937500000e+02
1.460000038146972656e+01,1.717824554443359375e+02
1.464000034332275391e+01,1.713739471435546875e+02
1.468000030517578125e+01,1.709653625488281250e+02
1.472000026702880859e+01,1.705569152832031250e+02
1.476000022888183594e+01,1.701483306884765625e+02
1.480000019073486328e+01,1.697361755371093750e+02
1.484000015258789062e+01,1.693204040527343750e+02
1.488000011444091797e+01,1.689041900634765625e+02
1.492000007629394531e+01,1.684727630615234375e+02
1.496000003814697266e+01,1.680413818359375000e+02
1.500000000000000000e+01,1.676085205078125000e+02
1.503999996185302734e+01,1.671742553710937500e+02
1.507999992370605469e+01,1.667399902343750000e+02
1.511999988555908203e+01,1.663210449218750000e+02
1.515999984741210938e+01,1.659021911621093750e+02
1.519999980926513672e+01,1.654786376953125000e+02
1.523999977111816406e+01,1.650503387451171875e+02
1.527999973297119141e+01,1.646220397949218750e+02
1.531999969482421875e+01,1.642072143554687500e+02
1.535999965667724609e+01,1.637920532226562500e+02
1.539999961853027344e+01,1.633779907226562500e+02
1.544000053405761719e+01,1.629647674560546875e+02
1.548000049591064453e+01,1.625513916015625000e+02
1.552000045776367188e+01,1.621244506835937500e+02
1.556000041961669922e+01,1.616973876953125000e+02
1.560000038146972656e+01,1.612804565429687500e+02
1.564000034332275391e+01,1.608734130859375000e+02
1.568000030517578125e+01,1.604660949707031250e+02
1.572000026702880859e+01,1.600400543212890625e+02
1.576000022888183594e+01,1.596135406494140625e+02
1.580000019073486328e+01,1.591797637939453125e+02
1.584000015258789062e+01,1.587385101318359375e+02
1.588000011444091797e+01,1.582942199707031250e+02
1.592000007629394531e+01,1.578496704101562500e+02
1.596000003814697266e+01,1.574055023193359375e+02
1.600000000000000000e+01,1.569645233154296875e+02
1.603999900817871094e+01,1.565269775390625000e+02
1.607999992370605469e+01,1.560893859863281250e+02
1.611999893188476562e+01,1.556518554687500000e+02
1.615999984741210938e+01,1.552142181396484375e+02
1.619999885559082031e+01,1.547767181396484375e+02
1.623999977111816406e+01,1.543390960693359375e+02
1.627999877929687500e+01,1.539016418457031250e+02
1.631999969482421875e+01,1.534640960693359375e+02
1.635999870300292969e+01,1.530266265869140625e+02
1.639999961853027344e+01,1.525890960693359375e+02
1.643999862670898438e+01,1.521517028808593750e+02
1.647999954223632812e+01,1.517143554687500000e+02
1.652000045776367188e+01,1.512893524169921875e+02
1.655999946594238281e+01,1.508643951416015625e+02
1.660000038146972656e+01,1.504392395019531250e+02
1.663999938964843750e+01,1.500141906738281250e+02
1.668000030517578125e+01,1.495891113281250000e+02
1.671999931335449219e+01,1.491632995605468750e+02
1.676000022888183594e+01,1.487373657226562500e+02
1.679999923706054688e+01,1.483112792968750000e+02
1.684000015258789062e+01,1.478854064941406250e+02
1.687999916076660156e+01,1.474592895507812500e+02
1.692000007629394531e+01,1.470333557128906250e+02
1.695999908447265625e+01,1.466072998046875000e+02
1.700000000000000000e+01,1.461931304931640625e+02
1.703999900817871094e+01,1.457906188964843750e+02
1.707999992370605469e+01,1.453879547119140625e+02
1.711999893188476562e+01,1.449854736328125000e+02
1.715999984741210938e+01,1.445829010009765625e+02
1.719999885559082031e+01,1.441803436279296875e+02
1.723999977111816406e+01,1.437778625488281250e+02
1.727999877929687500e+01,1.433938903808593750e+02
1.731999969482421875e+01,1.430158386230468750e+02
1.735999870300292969e+01,1.426377716064453125e+02
1.739999961853027344e+01,1.422595520019531250e+02
1.743999862670898438e+01,1.418805847167968750e+02
1.747999954223632812e+01,1.414999542236328125e+02
