# Start of Energy Bin (keV), Effective Area (cm^2)
1.600000023841857910e+00,8.728381395339965820e-01
1.639999985694885254e+00,1.164856076240539551e+00
1.680000066757202148e+00,1.552202224731445312e+00
1.720000028610229492e+00,2.065411567687988281e+00
1.759999990463256836e+00,2.707194089889526367e+00
1.799999952316284180e+00,3.319582939147949219e+00
1.840000033378601074e+00,2.015371799468994141e+00
1.879999995231628418e+00,2.493229866027832031e+00
1.920000076293945312e+00,3.164375782012939453e+00
1.960000038146972656e+00,3.898622989654541016e+00
2.000000000000000000e+00,4.725316047668457031e+00
2.039999961853027344e+00,5.682660102844238281e+00
2.079999923706054688e+00,6.830649375915527344e+00
2.119999885559082031e+00,6.029309749603271484e+00
2.160000085830688477e+00,6.898088455200195312e+00
2.200000047683715820e+00,7.060712814331054688e+00
2.240000009536743164e+00,7.970135211944580078e+00
2.279999971389770508e+00,9.026682853698730469e+00
2.319999933242797852e+00,1.032450103759765625e+01
2.360000133514404297e+00,1.156563663482666016e+01
2.400000095367431641e+00,1.273946952819824219e+01
2.440000057220458984e+00,1.406460762023925781e+01
2.480000019073486328e+00,1.561399078369140625e+01
2.519999980926513672e+00,1.748656272888183594e+01
2.559999942779541016e+00,1.952804946899414062e+01
2.599999904632568359e+00,2.135765647888183594e+01
2.639999866485595703e+00,2.156641769409179688e+01
2.679999828338623047e+00,2.337350082397460938e+01
2.720000028610229492e+00,2.531072998046875000e+01
2.759999990463256836e+00,2.739809799194335938e+01
2.799999952316284180e+00,2.963591766357421875e+01
2.840000152587890625e+00,3.193919372558593750e+01
2.880000114440917969e+00,3.391547393798828125e+01
2.920000076293945312e+00,3.597708511352539062e+01
2.960000038146972656e+00,3.815618515014648438e+01
3.000000000000000000e+00,4.039786529541015625e+01
3.039999961853027344e+00,4.142084884643554688e+01
3.079999923706054688e+00,4.353102874755859375e+01
3.119999885559082031e+00,4.569619750976562500e+01
3.159999847412109375e+00,4.742864990234375000e+01
3.199999809265136719e+00,4.920106506347656250e+01
3.240000009536743164e+00,5.101529312133789062e+01
3.279999971389770508e+00,5.213671112060546875e+01
3.319999933242797852e+00,5.537270355224609375e+01
3.360000133514404297e+00,5.878425598144531250e+01
3.400000095367431641e+00,6.235814666748046875e+01
3.440000057220458984e+00,6.480664825439453125e+01
3.480000019073486328e+00,6.645787048339843750e+01
3.519999980926513672e+00,6.643706512451171875e+01
3.559999942779541016e+00,6.810610198974609375e+01
3.599999904632568359e+00,6.980743408203125000e+01
3.639999866485595703e+00,7.152355194091796875e+01
3.679999828338623047e+00,7.325991058349609375e+01
3.719999790191650391e+00,7.411981964111328125e+01
3.759999752044677734e+00,7.590251922607421875e+01
3.800000190734863281e+00,7.744787597656250000e+01
3.840000152587890625e+00,7.881610107421875000e+01
3.880000114440917969e+00,8.018574523925781250e+01
3.920000076293945312e+00,8.194550323486328125e+01
3.960000038146972656e+00,8.385468292236328125e+01
4.000000000000000000e+00,8.527409362792968750e+01
4.039999961853027344e+00,8.713359069824218750e+01
4.079999923706054688e+00,8.901454925537109375e+01
4.119999885559082031e+00,9.091957092285156250e+01
4.159999847412109375e+00,9.282227325439453125e+01
4.199999809265136719e+00,9.443359375000000000e+01
4.239999771118164062e+00,9.605205535888671875e+01
4.279999732971191406e+00,9.768173217773437500e+01
4.320000171661376953e+00,9.768530273437500000e+01
4.360000133514404297e+00,9.861839294433593750e+01
4.400000095367431641e+00,1.000060195922851562e+02
4.440000057220458984e+00,1.013979415893554688e+02
4.480000019073486328e+00,1.027986297607421875e+02
4.519999980926513672e+00,1.042092666625976562e+02
4.559999942779541016e+00,1.056213836669921875e+02
4.599999904632568359e+00,1.056961364746093750e+02
4.639999866485595703e+00,1.068731231689453125e+02
4.679999828338623047e+00,1.079920959472656250e+02
4.719999790191650391e+00,1.091081695556640625e+02
4.759999752044677734e+00,1.102242889404296875e+02
4.799999713897705078e+00,1.113372192382812500e+02
4.840000152587890625e+00,1.124444427490234375e+02
4.880000114440917969e+00,1.135493469238281250e+02
4.920000076293945312e+00,1.140894470214843750e+02
4.960000038146972656e+00,1.151920471191406250e+02
5.000000000000000000e+00,1.162643127441406250e+02
5.039999961853027344e+00,1.173576354980468750e+02
5.079999923706054688e+00,1.183402786254882812e+02
5.119999885559082031e+00,1.193234100341796875e+02
5.159999847412109375e+00,1.203029937744140625e+02
5.199999809265136719e+00,1.212768402099609375e+02
5.239999771118164062e+00,1.222459106445312500e+02
5.279999732971191406e+00,1.232131958007812500e+02
5.320000171661376953e+00,1.241753158569335938e+02
5.360000133514404297e+00,1.251358337402343750e+02
5.400000095367431641e+00,1.260923614501953125e+02
5.440000057220458984e+00,1.270439910888671875e+02
5.480000019073486328e+00,1.279938507080078125e+02
5.519999980926513672e+00,1.289470214843750000e+02
5.559999942779541016e+00,1.298134155273437500e+02
5.599999904632568359e+00,1.305886535644531250e+02
5.639999866485595703e+00,1.313598480224609375e+02
5.679999828338623047e+00,1.321280212402343750e+02
5.719999790191650391e+00,1.328904876708984375e+02
5.759999752044677734e+00,1.336498107910156250e+02
5.799999713897705078e+00,1.343945312500000000e+02
5.839999675750732422e+00,1.351253204345703125e+02
5.879999637603759766e+00,1.358533630371093750e+02
5.919999599456787109e+00,1.365779418945312500e+02
5.960000038146972656e+00,1.372995910644531250e+02
6.000000000000000000e+00,1.379834136962890625e+02
6.039999961853027344e+00,1.386284332275390625e+02
6.079999923706054688e+00,1.392702178955078125e+02
6.119999885559082031e+00,1.398479919433593750e+02
6.159999847412109375e+00,1.403798370361328125e+02
6.199999809265136719e+00,1.409131469726562500e+02
6.239999771118164062e+00,1.414477844238281250e+02
6.279999732971191406e+00,1.419791564941406250e+02
6.319999694824218750e+00,1.425063476562500000e+02
6.359999656677246094e+00,1.430302124023437500e+02
6.399999618530273438e+00,1.435469665527343750e+02
6.439999580383300781e+00,1.440567779541015625e+02
6.480000019073486328e+00,1.445632476806640625e+02
6.519999980926513672e+00,1.450674285888671875e+02
6.559999942779541016e+00,1.455685577392578125e+02
6.599999904632568359e+00,1.460629272460937500e+02
6.639999866485595703e+00,1.465504455566406250e+02
6.679999828338623047e+00,1.470352935791015625e+02
6.719999790191650391e+00,1.474880065917968750e+02
6.759999752044677734e+00,1.478778991699218750e+02
6.799999713897705078e+00,1.482570800781250000e+02
6.839999675750732422e+00,1.486257629394531250e+02
6.879999637603759766e+00,1.489917297363281250e+02
6.919999599456787109e+00,1.493664398193359375e+02
6.959999561309814453e+00,1.497384490966796875e+02
7.000000000000000000e+00,1.500722351074218750e+02
7.039999961853027344e+00,1.503673706054687500e+02
7.079999923706054688e+00,1.506605834960937500e+02
7.119999885559082031e+00,1.501397399902343750e+02
7.159999847412109375e+00,1.504086456298828125e+02
7.199999809265136719e+00,1.506801147460937500e+02
7.239999771118164062e+00,1.509541015625000000e+02
7.279999732971191406e+00,1.512256927490234375e+02
7.319999694824218750e+00,1.514987792968750000e+02
7.359999656677246094e+00,1.517692260742187500e+02
7.399999618530273438e+00,1.520284881591796875e+02
7.439999580383300781e+00,1.522762603759765625e+02
7.479999542236328125e+00,1.525220336914062500e+02
7.519999980926513672e+00,1.527649230957031250e+02
7.559999942779541016e+00,1.530055847167968750e+02
7.599999904632568359e+00,1.532302703857421875e+02
7.639999866485595703e+00,1.534389038085937500e+02
7.679999828338623047e+00,1.536452026367187500e+02
7.719999790191650391e+00,1.538470306396484375e+02
7.759999752044677734e+00,1.540469970703125000e+02
7.799999713897705078e+00,1.542243652343750000e+02
7.839999675750732422e+00,1.543789215087890625e+02
7.879999637603759766e+00,1.545315246582031250e+02
7.919999599456787109e+00,1.546964721679687500e+02
7.959999561309814453e+00,1.548593139648437500e+02
7.999999523162841797e+00,1.549801177978515625e+02
8.039999961853027344e+00,1.550585784912109375e+02
8.079999923706054688e+00,1.551350097656250000e+02
8.119999885559082031e+00,1.551979827880859375e+02
8.159999847412109375e+00,1.552190246582031250e+02
8.199999809265136719e+00,1.552086791992187500e+02
8.239999771118164062e+00,1.551942443847656250e+02
8.279999732971191406e+00,1.552604827880859375e+02
8.319999694824218750e+00,1.553385925292968750e+02
8.359999656677246094e+00,1.554148254394531250e+02
8.399999618530273438e+00,1.554665374755859375e+02
8.439999580383300781e+00,1.554936981201171875e+02
8.479999542236328125e+00,1.555186767578125000e+02
8.520000457763671875e+00,1.555555267333984375e+02
8.560000419616699219e+00,1.555903472900390625e+02
8.600000381469726562e+00,1.556022644042968750e+02
8.640000343322753906e+00,1.555911865234375000e+02
8.680000305175781250e+00,1.555779876708984375e+02
8.720000267028808594e+00,1.555456848144531250e+02
8.760000228881835938e+00,1.555115966796875000e+02
8.800000190734863281e+00,1.554517211914062500e+02
8.840000152587890625e+00,1.553659820556640625e+02
8.880000114440917969e+00,1.552784729003906250e+02
8.920000076293945312e+00,1.551966705322265625e+02
8.960000038146972656e+00,1.550914306640625000e+02
9.000000000000000000e+00,1.549514007568359375e+02
9.039999961853027344e+00,1.547884521484375000e+02
9.079999923706054688e+00,1.546235961914062500e+02
9.119999885559082031e+00,1.544776611328125000e+02
9.159999847412109375e+00,1.544208679199218750e+02
9.199999809265136719e+00,1.543426055908203125e+02
9.239999771118164062e+00,1.542429656982421875e+02
9.279999732971191406e+00,1.541409912109375000e+02
9.319999694824218750e+00,1.540428771972656250e+02
9.359999656677246094e+00,1.539423828125000000e+02
9.399999618530273438e+00,1.538155059814453125e+02
9.439999580383300781e+00,1.536623077392578125e+02
9.479999542236328125e+00,1.535068664550781250e+02
9.519999504089355469e+00,1.533539733886718750e+02
9.560000419616699219e+00,1.531989593505859375e+02
9.600000381469726562e+00,1.529714508056640625e+02
9.640000343322753906e+00,1.526854705810546875e+02
9.680000305175781250e+00,1.524392395019531250e+02
9.720000267028808594e+00,1.521894226074218750e+02
9.760000228881835938e+00,1.519372253417968750e+02
9.800000190734863281e+00,1.514346618652343750e+02
9.840000152587890625e+00,1.506771850585937500e+02
9.880000114440917969e+00,1.499039611816406250e+02
9.920000076293945312e+00,1.491312561035156250e+02
9.960000038146972656e+00,1.486413421630859375e+02
1.000000000000000000e+01,1.466605529785156250e+02
1.003999996185302734e+01,1.429888916015625000e+02
1.007999992370605469e+01,1.393165283203125000e+02
1.011999988555908203e+01,1.356418762207031250e+02
1.015999984741210938e+01,1.319682922363281250e+02
1.019999980926513672e+01,1.279421234130859375e+02
1.023999977111816406e+01,1.282326049804687500e+02
1.027999973297119141e+01,1.285181884765625000e+02
1.032000064849853516e+01,1.287870788574218750e+02
1.036000061035156250e+01,1.290512390136718750e+02
1.040000057220458984e+01,1.298134613037109375e+02
1.044000053405761719e+01,1.308082885742187500e+02
1.048000049591064453e+01,1.309795074462890625e+02
1.052000045776367188e+01,1.311621704101562500e+02
1.056000041961669922e+01,1.313404235839843750e+02
1.060000038146972656e+01,1.311546783447265625e+02
1.064000034332275391e+01,1.306076049804687500e+02
1.068000030517578125e+01,1.300600128173828125e+02
1.072000026702880859e+01,1.294956970214843750e+02
1.076000022888183594e+01,1.289309539794921875e+02
1.080000019073486328e+01,1.282951354980468750e+02
1.084000015258789062e+01,1.275802612304687500e+02
1.088000011444091797e+01,1.268623504638671875e+02
1.092000007629394531e+01,1.261392669677734375e+02
1.096000003814697266e+01,1.254171752929687500e+02
1.100000000000000000e+01,1.246294250488281250e+02
1.103999996185302734e+01,1.237768554687500000e+02
1.107999992370605469e+01,1.229266433715820312e+02
1.111999988555908203e+01,1.228036270141601562e+02
1.115999984741210938e+01,1.226794891357421875e+02
1.119999980926513672e+01,1.222506561279296875e+02
1.123999977111816406e+01,1.215171051025390625e+02
1.127999973297119141e+01,1.207826232910156250e+02
1.131999969482421875e+01,1.200424423217773438e+02
1.136000061035156250e+01,1.193016204833984375e+02
1.140000057220458984e+01,1.179958724975585938e+02
1.144000053405761719e+01,1.161240386962890625e+02
1.148000049591064453e+01,1.142494812011718750e+02
1.152000045776367188e+01,1.122815704345703125e+02
1.156000041961669922e+01,1.072763061523437500e+02
1.160000038146972656e+01,1.058959121704101562e+02
1.164000034332275391e+01,1.055094757080078125e+02
1.168000030517578125e+01,1.051198654174804688e+02
1.172000026702880859e+01,1.047257766723632812e+02
1.176000022888183594e+01,1.043272247314453125e+02
1.180000019073486328e+01,1.038352203369140625e+02
1.184000015258789062e+01,1.032527008056640625e+02
1.188000011444091797e+01,1.026707153320312500e+02
1.192000007629394531e+01,1.020793304443359375e+02
1.196000003814697266e+01,1.014856109619140625e+02
1.200000000000000000e+01,1.008170623779296875e+02
1.203999996185302734e+01,1.000744171142578125e+02
1.207999992370605469e+01,9.955093383789062500e+01
1.211999988555908203e+01,9.968028259277343750e+01
1.215999984741210938e+01,9.980915832519531250e+01
1.219999980926513672e+01,9.989038848876953125e+01
1.223999977111816406e+01,9.992369842529296875e+01
1.227999973297119141e+01,9.995652770996093750e+01
1.231999969482421875e+01,9.997538757324218750e+01
1.236000061035156250e+01,9.999378204345703125e+01
1.240000057220458984e+01,9.994583129882812500e+01
1.244000053405761719e+01,9.983181762695312500e+01
1.248000049591064453e+01,9.971731567382812500e+01
1.252000045776367188e+01,9.960560607910156250e+01
1.256000041961669922e+01,9.949362945556640625e+01
1.260000038146972656e+01,9.934576416015625000e+01
1.264000034332275391e+01,9.916197204589843750e+01
1.268000030517578125e+01,9.897811889648437500e+01
1.272000026702880859e+01,9.878855895996093750e+01
1.276000022888183594e+01,9.859884643554687500e+01
1.280000019073486328e+01,9.838696289062500000e+01
1.284000015258789062e+01,9.815287780761718750e+01
1.288000011444091797e+01,9.791906738281250000e+01
1.292000007629394531e+01,9.768157196044921875e+01
1.296000003814697266e+01,9.744395446777343750e+01
1.300000000000000000e+01,9.711206054687500000e+01
1.303999996185302734e+01,9.668629455566406250e+01
1.307999992370605469e+01,9.626102447509765625e+01
1.311999988555908203e+01,9.584576416015625000e+01
1.315999984741210938e+01,9.542974853515625000e+01
1.319999980926513672e+01,9.496086120605468750e+01
1.323999977111816406e+01,9.443973541259765625e+01
1.327999973297119141e+01,9.388327026367187500e+01
1.331999969482421875e+01,9.243048858642578125e+01
1.335999965667724609e+01,9.192531585693359375e+01
1.340000057220458984e+01,9.157521057128906250e+01
1.344000053405761719e+01,9.133884429931640625e+01
1.348000049591064453e+01,9.110202026367187500e+01
1.352000045776367188e+01,9.086543273925781250e+01
1.356000041961669922e+01,9.062852478027343750e+01
1.360000038146972656e+01,9.036219787597656250e+01
1.364000034332275391e+01,9.006651306152343750e+01
1.368000030517578125e+01,8.977027893066406250e+01
1.372000026702880859e+01,8.947257232666015625e+01
1.376000022888183594e+01,8.917446899414062500e+01
1.380000019073486328e+01,8.885312652587890625e+01
1.384000015258789062e+01,8.818855285644531250e+01
1.388000011444091797e+01,8.784084320068359375e+01
1.392000007629394531e+01,8.765456390380859375e+01
1.396000003814697266e+01,8.746866607666015625e+01
1.400000000000000000e+01,8.729977416992187500e+01
1.403999996185302734e+01,8.714805603027343750e+01
1.407999992370605469e+01,8.699600982666015625e+01
1.411999988555908203e+01,8.683631896972656250e+01
1.415999984741210938e+01,8.667626953125000000e+01
1.419999980926513672e+01,8.651432800292968750e+01
1.423999977111816406e+01,8.635031127929687500e+01
1.427999973297119141e+01,8.618595886230468750e+01
1.431999969482421875e+01,8.603274536132812500e+01
1.435999965667724609e+01,8.587924957275390625e+01
1.439999961853027344e+01,8.571641540527343750e+01
1.444000053405761719e+01,8.554166412353515625e+01
1.448000049591064453e+01,8.536679077148437500e+01
1.452000045776367188e+01,8.518872070312500000e+01
1.456000041961669922e+01,8.501044464111328125e+01
1.460000038146972656e+01,8.483045196533203125e+01
1.464000034332275391e+01,8.464884948730468750e+01
1.468000030517578125e+01,8.446712493896484375e+01
1.472000026702880859e+01,8.428560638427734375e+01
1.476000022888183594e+01,8.410394287109375000e+01
1.480000019073486328e+01,8.392092132568359375e+01
1.484000015258789062e+01,8.373655700683593750e+01
1.488000011444091797e+01,8.355187225341796875e+01
1.492000007629394531e+01,8.336621856689453125e+01
1.496000003814697266e+01,8.318046569824218750e+01
1.500000000000000000e+01,8.299510192871093750e+01
1.503999996185302734e+01,8.281018066406250000e+01
1.507999992370605469e+01,8.262512969970703125e+01
1.511999988555908203e+01,8.244407653808593750e+01
1.515999984741210938e+01,8.226295471191406250e+01
1.519999980926513672e+01,8.207924652099609375e+01
1.523999977111816406e+01,8.189293670654296875e+01
1.527999973297119141e+01,8.170649719238281250e+01
1.531999969482421875e+01,8.151022338867187500e+01
1.535999965667724609e+01,8.131375122070312500e+01
1.539999961853027344e+01,8.111808776855468750e+01
1.544000053405761719e+01,8.092310333251953125e+01
1.548000049591064453e+01,8.072800445556640625e+01
1.552000045776367188e+01,8.055204772949218750e+01
1.556000041961669922e+01,8.037586975097656250e+01
1.560000038146972656e+01,8.020463562011718750e+01
1.564000034332275391e+01,8.003823852539062500e+01
1.568000030517578125e+01,7.987153625488281250e+01
1.572000026702880859e+01,7.965434265136718750e+01
1.576000022888183594e+01,7.943656921386718750e+01
1.580000019073486328e+01,7.921459960937500000e+01
1.584000015258789062e+01,7.898833465576171875e+01
1.588000011444091797e+01,7.876059722900390625e+01
1.592000007629394531e+01,7.854028320312500000e+01
1.596000003814697266e+01,7.832014465332031250e+01
1.600000000000000000e+01,7.809925079345703125e+01
1.603999900817871094e+01,7.787774658203125000e+01
1.607999992370605469e+01,7.765623474121093750e+01
1.611999893188476562e+01,7.743206787109375000e+01
1.615999984741210938e+01,7.720785522460937500e+01
1.619999885559082031e+01,7.698376464843750000e+01
1.623999977111816406e+01,7.675962066650390625e+01
1.627999877929687500e+01,7.653559875488281250e+01
1.631999969482421875e+01,7.631087493896484375e+01
1.635999870300292969e+01,7.608622741699218750e+01
1.639999961853027344e+01,7.586158752441406250e+01
1.643999862670898438e+01,7.563703918457031250e+01
1.647999954223632812e+01,7.541255187988281250e+01
1.652000045776367188e+01,7.518894958496093750e+01
1.655999946594238281e+01,7.496543121337890625e+01
1.660000038146972656e+01,7.474188232421875000e+01
1.663999938964843750e+01,7.451843261718750000e+01
1.668000030517578125e+01,7.429503631591796875e+01
1.671999931335449219e+01,7.406879425048828125e+01
1.676000022888183594e+01,7.384255981445312500e+01
1.679999923706054688e+01,7.361634063720703125e+01
1.684000015258789062e+01,7.339028167724609375e+01
1.687999916076660156e+01,7.316419982910156250e+01
1.692000007629394531e+01,7.294327545166015625e+01
1.695999908447265625e+01,7.272233581542968750e+01
1.700000000000000000e+01,7.250341033935546875e+01
1.703999900817871094e+01,7.228642272949218750e+01
1.707999992370605469e+01,7.206944274902343750e+01
1.711999893188476562e+01,7.185863494873046875e+01
1.715999984741210938e+01,7.164781188964843750e+01
1.719999885559082031e+01,7.143704986572265625e+01
1.723999977111816406e+01,7.122635650634765625e+01
1.727999877929687500e+01,7.102423858642578125e+01
1.731999969482421875e+01,7.081430816650390625e+01
1.735999870300292969e+01,7.060448455810546875e+01
1.739999961853027344e+01,7.039469909667968750e+01
1.743999862670898438e+01,7.018465423583984375e+01
1.747999954223632812e+01,6.997389984130859375e+01
