# Start of Energy Bin (keV), Effective Area (cm^2)
1.600000023841857910e+00,6.496515274047851562e-01
1.639999985694885254e+00,8.664867877960205078e-01
1.680000066757202148e+00,1.153926849365234375e+00
1.720000028610229492e+00,1.534525394439697266e+00
1.759999990463256836e+00,2.010118246078491211e+00
1.799999952316284180e+00,2.462743759155273438e+00
1.840000033378601074e+00,1.493722558021545410e+00
1.879999995231628418e+00,1.847337245941162109e+00
1.920000076293945312e+00,2.345905065536499023e+00
1.960000038146972656e+00,2.891818046569824219e+00
2.000000000000000000e+00,3.507271289825439453e+00
2.039999961853027344e+00,4.220942497253417969e+00
2.079999923706054688e+00,5.077341079711914062e+00
2.119999885559082031e+00,4.483033180236816406e+00
2.160000085830688477e+00,5.129675865173339844e+00
2.200000047683715820e+00,5.251037597656250000e+00
2.240000009536743164e+00,5.927559375762939453e+00
2.279999971389770508e+00,6.713593482971191406e+00
2.319999933242797852e+00,7.679540634155273438e+00
2.360000133514404297e+00,8.603496551513671875e+00
2.400000095367431641e+00,9.477451324462890625e+00
2.440000057220458984e+00,1.046400737762451172e+01
2.480000019073486328e+00,1.161754989624023438e+01
2.519999980926513672e+00,1.301195144653320312e+01
2.559999942779541016e+00,1.453200531005859375e+01
2.599999904632568359e+00,1.589411163330078125e+01
2.639999866485595703e+00,1.605002593994140625e+01
2.679999828338623047e+00,1.739488792419433594e+01
2.720000028610229492e+00,1.883477973937988281e+01
2.759999990463256836e+00,2.038610649108886719e+01
2.799999952316284180e+00,2.204898834228515625e+01
2.840000152587890625e+00,2.376053810119628906e+01
2.880000114440917969e+00,2.522873306274414062e+01
2.920000076293945312e+00,2.676546096801757812e+01
2.960000038146972656e+00,2.838996124267578125e+01
3.000000000000000000e+00,3.002965927124023438e+01
3.039999961853027344e+00,3.072855567932128906e+01
3.079999923706054688e+00,3.222863769531250000e+01
3.119999885559082031e+00,3.375827789306640625e+01
3.159999847412109375e+00,3.496134185791015625e+01
3.199999809265136719e+00,3.618751525878906250e+01
3.240000009536743164e+00,3.743787384033203125e+01
3.279999971389770508e+00,3.817399597167968750e+01
3.319999933242797852e+00,4.070133972167968750e+01
3.360000133514404297e+00,4.337293624877929688e+01
3.400000095367431641e+00,4.617692565917968750e+01
3.440000057220458984e+00,4.803069305419921875e+01
3.480000019073486328e+00,4.925208282470703125e+01
3.519999980926513672e+00,4.923307037353515625e+01
3.559999942779541016e+00,5.046619796752929688e+01
3.599999904632568359e+00,5.172304916381835938e+01
3.639999866485595703e+00,5.299064636230468750e+01
3.679999828338623047e+00,5.427301788330078125e+01
3.719999790191650391e+00,5.490748977661132812e+01
3.759999752044677734e+00,5.622544097900390625e+01
3.800000190734863281e+00,5.736739730834960938e+01
3.840000152587890625e+00,5.837797546386718750e+01
3.880000114440917969e+00,5.938946914672851562e+01
3.920000076293945312e+00,6.069220733642578125e+01
3.960000038146972656e+00,6.210682296752929688e+01
4.000000000000000000e+00,6.315866851806640625e+01
4.039999961853027344e+00,6.453644561767578125e+01
4.079999923706054688e+00,6.593013000488281250e+01
4.119999885559082031e+00,6.734242248535156250e+01
4.159999847412109375e+00,6.875303649902343750e+01
4.199999809265136719e+00,6.994783020019531250e+01
4.239999771118164062e+00,7.114791107177734375e+01
4.279999732971191406e+00,7.235633850097656250e+01
4.320000171661376953e+00,7.235350036621093750e+01
4.360000133514404297e+00,7.304027557373046875e+01
4.400000095367431641e+00,7.406396484375000000e+01
4.440000057220458984e+00,7.509068298339843750e+01
4.480000019073486328e+00,7.612376403808593750e+01
4.519999980926513672e+00,7.717551422119140625e+01
4.559999942779541016e+00,7.822854614257812500e+01
4.599999904632568359e+00,7.829112243652343750e+01
4.639999866485595703e+00,7.917018127441406250e+01
4.679999828338623047e+00,8.000642395019531250e+01
4.719999790191650391e+00,8.083543395996093750e+01
4.759999752044677734e+00,8.166453552246093750e+01
4.799999713897705078e+00,8.249125671386718750e+01
4.840000152587890625e+00,8.331372833251953125e+01
4.880000114440917969e+00,8.413453674316406250e+01
4.920000076293945312e+00,8.454053497314453125e+01
4.960000038146972656e+00,8.536343383789062500e+01
5.000000000000000000e+00,8.616387939453125000e+01
5.039999961853027344e+00,8.696317291259765625e+01
5.079999923706054688e+00,8.766925048828125000e+01
5.119999885559082031e+00,8.836973571777343750e+01
5.159999847412109375e+00,8.906713867187500000e+01
5.199999809265136719e+00,8.975973510742187500e+01
5.239999771118164062e+00,9.044828033447265625e+01
5.279999732971191406e+00,9.113504791259765625e+01
5.320000171661376953e+00,9.181204986572265625e+01
5.360000133514404297e+00,9.248733520507812500e+01
5.400000095367431641e+00,9.315902709960937500e+01
5.440000057220458984e+00,9.382646942138671875e+01
5.480000019073486328e+00,9.449210357666015625e+01
5.519999980926513672e+00,9.516572570800781250e+01
5.559999942779541016e+00,9.577491760253906250e+01
5.599999904632568359e+00,9.631632995605468750e+01
5.639999866485595703e+00,9.685425567626953125e+01
5.679999828338623047e+00,9.738960266113281250e+01
5.719999790191650391e+00,9.793122863769531250e+01
5.759999752044677734e+00,9.847027587890625000e+01
5.799999713897705078e+00,9.899810791015625000e+01
5.839999675750732422e+00,9.951521301269531250e+01
5.879999637603759766e+00,1.000300750732421875e+02
5.919999599456787109e+00,1.005332489013671875e+02
5.960000038146972656e+00,1.010339584350585938e+02
6.000000000000000000e+00,1.015162811279296875e+02
6.039999961853027344e+00,1.019796752929687500e+02
6.079999923706054688e+00,1.024405746459960938e+02
6.119999885559082031e+00,1.028555603027343750e+02
6.159999847412109375e+00,1.032366485595703125e+02
6.199999809265136719e+00,1.036185150146484375e+02
6.239999771118164062e+00,1.040010070800781250e+02
6.279999732971191406e+00,1.043810272216796875e+02
6.319999694824218750e+00,1.047561950683593750e+02
6.359999656677246094e+00,1.051288070678710938e+02
6.399999618530273438e+00,1.054956588745117188e+02
6.439999580383300781e+00,1.058568572998046875e+02
6.480000019073486328e+00,1.062154998779296875e+02
6.519999980926513672e+00,1.065701217651367188e+02
6.559999942779541016e+00,1.069223937988281250e+02
6.599999904632568359e+00,1.072688903808593750e+02
6.639999866485595703e+00,1.076095733642578125e+02
6.679999828338623047e+00,1.079481811523437500e+02
6.719999790191650391e+00,1.082714996337890625e+02
6.759999752044677734e+00,1.085486297607421875e+02
6.799999713897705078e+00,1.088166351318359375e+02
6.839999675750732422e+00,1.090756759643554688e+02
6.879999637603759766e+00,1.093326644897460938e+02
6.919999599456787109e+00,1.095897903442382812e+02
6.959999561309814453e+00,1.098448333740234375e+02
7.000000000000000000e+00,1.100737457275390625e+02
7.039999961853027344e+00,1.102762298583984375e+02
7.079999923706054688e+00,1.104772644042968750e+02
7.119999885559082031e+00,1.100845031738281250e+02
7.159999847412109375e+00,1.102708129882812500e+02
7.199999809265136719e+00,1.104544982910156250e+02
7.239999771118164062e+00,1.106354980468750000e+02
7.279999732971191406e+00,1.108146667480468750e+02
7.319999694824218750e+00,1.109989929199218750e+02
7.359999656677246094e+00,1.111812896728515625e+02
7.399999618530273438e+00,1.113497543334960938e+02
7.439999580383300781e+00,1.115041580200195312e+02
7.479999542236328125e+00,1.116569976806640625e+02
7.519999980926513672e+00,1.118107223510742188e+02
7.559999942779541016e+00,1.119627227783203125e+02
7.599999904632568359e+00,1.120957107543945312e+02
7.639999866485595703e+00,1.122095642089843750e+02
7.679999828338623047e+00,1.123215942382812500e+02
7.719999790191650391e+00,1.124247741699218750e+02
7.759999752044677734e+00,1.125264282226562500e+02
7.799999713897705078e+00,1.126087646484375000e+02
7.839999675750732422e+00,1.126716079711914062e+02
7.879999637603759766e+00,1.127328643798828125e+02
7.919999599456787109e+00,1.128099822998046875e+02
7.959999561309814453e+00,1.128854370117187500e+02
7.999999523162841797e+00,1.129303131103515625e+02
8.039999961853027344e+00,1.129444274902343750e+02
8.079999923706054688e+00,1.129569244384765625e+02
8.119999885559082031e+00,1.129501037597656250e+02
8.159999847412109375e+00,1.129126434326171875e+02
8.199999809265136719e+00,1.128587036132812500e+02
8.239999771118164062e+00,1.128143005371093750e+02
8.279999732971191406e+00,1.128469390869140625e+02
8.319999694824218750e+00,1.129069061279296875e+02
8.359999656677246094e+00,1.129653930664062500e+02
8.399999618530273438e+00,1.130084152221679688e+02
8.439999580383300781e+00,1.130359573364257812e+02
8.479999542236328125e+00,1.130618362426757812e+02
8.520000457763671875e+00,1.130940093994140625e+02
8.560000419616699219e+00,1.131246032714843750e+02
8.600000381469726562e+00,1.131402893066406250e+02
8.640000343322753906e+00,1.131409759521484375e+02
8.680000305175781250e+00,1.131399993896484375e+02
8.720000267028808594e+00,1.131238098144531250e+02
8.760000228881835938e+00,1.131062316894531250e+02
8.800000190734863281e+00,1.130759887695312500e+02
8.840000152587890625e+00,1.130330657958984375e+02
8.880000114440917969e+00,1.129887695312500000e+02
8.920000076293945312e+00,1.129527435302734375e+02
8.960000038146972656e+00,1.128995666503906250e+02
9.000000000000000000e+00,1.128259124755859375e+02
9.039999961853027344e+00,1.127404174804687500e+02
9.079999923706054688e+00,1.126534194946289062e+02
9.119999885559082031e+00,1.125716857910156250e+02
9.159999847412109375e+00,1.125569763183593750e+02
9.199999809265136719e+00,1.125275726318359375e+02
9.239999771118164062e+00,1.124835510253906250e+02
9.279999732971191406e+00,1.124377517700195312e+02
9.319999694824218750e+00,1.124138107299804688e+02
9.359999656677246094e+00,1.123880538940429688e+02
9.399999618530273438e+00,1.123401412963867188e+02
9.439999580383300781e+00,1.122701263427734375e+02
9.479999542236328125e+00,1.121983184814453125e+02
9.519999504089355469e+00,1.121187057495117188e+02
9.560000419616699219e+00,1.120374221801757812e+02
9.600000381469726562e+00,1.118985595703125000e+02
9.640000343322753906e+00,1.117122802734375000e+02
9.680000305175781250e+00,1.115549011230468750e+02
9.720000267028808594e+00,1.113975524902343750e+02
9.760000228881835938e+00,1.112382659912109375e+02
9.800000190734863281e+00,1.108857879638671875e+02
9.840000152587890625e+00,1.103366699218750000e+02
9.880000114440917969e+00,1.097755584716796875e+02
9.920000076293945312e+00,1.092155609130859375e+02
9.960000038146972656e+00,1.088612670898437500e+02
1.000000000000000000e+01,1.073952636718750000e+02
1.003999996185302734e+01,1.046725997924804688e+02
1.007999992370605469e+01,1.019501419067382812e+02
1.011999988555908203e+01,9.922602844238281250e+01
1.015999984741210938e+01,9.650360107421875000e+01
1.019999980926513672e+01,9.352578735351562500e+01
1.023999977111816406e+01,9.377314758300781250e+01
1.027999973297119141e+01,9.401697540283203125e+01
1.032000064849853516e+01,9.426552581787109375e+01
1.036000061035156250e+01,9.451075744628906250e+01
1.040000057220458984e+01,9.512315368652343750e+01
1.044000053405761719e+01,9.589647674560546875e+01
1.048000049591064453e+01,9.602929687500000000e+01
1.052000045776367188e+01,9.613815307617187500e+01
1.056000041961669922e+01,9.624332427978515625e+01
1.060000038146972656e+01,9.607173156738281250e+01
1.064000034332275391e+01,9.562574768066406250e+01
1.068000030517578125e+01,9.517936706542968750e+01
1.072000026702880859e+01,9.472947692871093750e+01
1.076000022888183594e+01,9.427920532226562500e+01
1.080000019073486328e+01,9.377493286132812500e+01
1.084000015258789062e+01,9.321093750000000000e+01
1.088000011444091797e+01,9.264477539062500000e+01
1.092000007629394531e+01,9.207814025878906250e+01
1.096000003814697266e+01,9.151223754882812500e+01
1.100000000000000000e+01,9.089733123779296875e+01
1.103999996185302734e+01,9.023408508300781250e+01
1.107999992370605469e+01,8.957272338867187500e+01
1.111999988555908203e+01,8.947148132324218750e+01
1.115999984741210938e+01,8.936944580078125000e+01
1.119999980926513672e+01,8.904214477539062500e+01
1.123999977111816406e+01,8.848970031738281250e+01
1.127999973297119141e+01,8.793670654296875000e+01
1.131999969482421875e+01,8.737477111816406250e+01
1.136000061035156250e+01,8.681257629394531250e+01
1.140000057220458984e+01,8.585122680664062500e+01
1.144000053405761719e+01,8.448968505859375000e+01
1.148000049591064453e+01,8.312617492675781250e+01
1.152000045776367188e+01,8.169950103759765625e+01
1.156000041961669922e+01,7.807705688476562500e+01
1.160000038146972656e+01,7.708422851562500000e+01
1.164000034332275391e+01,7.680780029296875000e+01
1.168000030517578125e+01,7.652906036376953125e+01
1.172000026702880859e+01,7.624702453613281250e+01
1.176000022888183594e+01,7.596171569824218750e+01
1.180000019073486328e+01,7.560466766357421875e+01
1.184000015258789062e+01,7.517800140380859375e+01
1.188000011444091797e+01,7.475173950195312500e+01
1.192000007629394531e+01,7.431568908691406250e+01
1.196000003814697266e+01,7.387797546386718750e+01
1.200000000000000000e+01,7.338700866699218750e+01
1.203999996185302734e+01,7.284330749511718750e+01
1.207999992370605469e+01,7.246269226074218750e+01
1.211999988555908203e+01,7.257225036621093750e+01
1.215999984741210938e+01,7.268153381347656250e+01
1.219999980926513672e+01,7.275454711914062500e+01
1.223999977111816406e+01,7.279106140136718750e+01
1.227999973297119141e+01,7.282723999023437500e+01
1.231999969482421875e+01,7.284704589843750000e+01
1.236000061035156250e+01,7.286650085449218750e+01
1.240000057220458984e+01,7.283665466308593750e+01
1.244000053405761719e+01,7.275770568847656250e+01
1.248000049591064453e+01,7.267838287353515625e+01
1.252000045776367188e+01,7.260102081298828125e+01
1.256000041961669922e+01,7.252345275878906250e+01
1.260000038146972656e+01,7.241975402832031250e+01
1.264000034332275391e+01,7.228990936279296875e+01
1.268000030517578125e+01,7.216000366210937500e+01
1.272000026702880859e+01,7.202471160888671875e+01
1.276000022888183594e+01,7.188931274414062500e+01
1.280000019073486328e+01,7.173820495605468750e+01
1.284000015258789062e+01,7.157138061523437500e+01
1.288000011444091797e+01,7.140473937988281250e+01
1.292000007629394531e+01,7.124155426025390625e+01
1.296000003814697266e+01,7.107824707031250000e+01
1.300000000000000000e+01,7.084836578369140625e+01
1.303999996185302734e+01,7.055214691162109375e+01
1.307999992370605469e+01,7.025617980957031250e+01
1.311999988555908203e+01,6.995897674560546875e+01
1.315999984741210938e+01,6.966117858886718750e+01
1.319999980926513672e+01,6.932599639892578125e+01
1.323999977111816406e+01,6.895385742187500000e+01
1.327999973297119141e+01,6.854885864257812500e+01
1.331999969482421875e+01,6.748899078369140625e+01
1.335999965667724609e+01,6.712764739990234375e+01
1.340000057220458984e+01,6.688159942626953125e+01
1.344000053405761719e+01,6.671852874755859375e+01
1.348000049591064453e+01,6.655505371093750000e+01
1.352000045776367188e+01,6.639012145996093750e+01
1.356000041961669922e+01,6.622489929199218750e+01
1.360000038146972656e+01,6.603952789306640625e+01
1.364000034332275391e+01,6.583403778076171875e+01
1.368000030517578125e+01,6.562807464599609375e+01
1.372000026702880859e+01,6.542504882812500000e+01
1.376000022888183594e+01,6.522164916992187500e+01
1.380000019073486328e+01,6.500147247314453125e+01
1.384000015258789062e+01,6.453034210205078125e+01
1.388000011444091797e+01,6.428807830810546875e+01
1.392000007629394531e+01,6.415666198730468750e+01
1.396000003814697266e+01,6.402551269531250000e+01
1.400000000000000000e+01,6.390689086914062500e+01
1.403999996185302734e+01,6.380094146728515625e+01
1.407999992370605469e+01,6.369473648071289062e+01
1.411999988555908203e+01,6.359620666503906250e+01
1.415999984741210938e+01,6.349736022949218750e+01
1.419999980926513672e+01,6.339735412597656250e+01
1.423999977111816406e+01,6.329606628417968750e+01
1.427999973297119141e+01,6.319447326660156250e+01
1.431999969482421875e+01,6.309323120117187500e+01
1.435999965667724609e+01,6.299173736572265625e+01
1.439999961853027344e+01,6.288352203369140625e+01
1.444000053405761719e+01,6.276668930053710938e+01
1.448000049591064453e+01,6.264971923828125000e+01
1.452000045776367188e+01,6.252707672119140625e+01
1.456000041961669922e+01,6.240425872802734375e+01
1.460000038146972656e+01,6.228026580810546875e+01
1.464000034332275391e+01,6.215518951416015625e+01
1.468000030517578125e+01,6.202997970581054688e+01
1.472000026702880859e+01,6.191306304931640625e+01
1.476000022888183594e+01,6.179595184326171875e+01
1.480000019073486328e+01,6.167769622802734375e+01
1.484000015258789062e+01,6.155827713012695312e+01
1.488000011444091797e+01,6.143855285644531250e+01
1.492000007629394531e+01,6.131217575073242188e+01
1.496000003814697266e+01,6.118568801879882812e+01
1.500000000000000000e+01,6.105933761596679688e+01
1.503999996185302734e+01,6.093316268920898438e+01
1.507999992370605469e+01,6.080684280395507812e+01
1.511999988555908203e+01,6.068241882324218750e+01
1.515999984741210938e+01,6.055789947509765625e+01
1.519999980926513672e+01,6.043107604980468750e+01
1.523999977111816406e+01,6.030191802978515625e+01
1.527999973297119141e+01,6.017263031005859375e+01
1.531999969482421875e+01,6.005325317382812500e+01
1.535999965667724609e+01,5.993359756469726562e+01
1.539999961853027344e+01,5.981399536132812500e+01
1.544000053405761719e+01,5.969434356689453125e+01
1.548000049591064453e+01,5.957449340820312500e+01
1.552000045776367188e+01,5.944495010375976562e+01
1.556000041961669922e+01,5.931525039672851562e+01
1.560000038146972656e+01,5.918872070312500000e+01
1.564000034332275391e+01,5.906529235839843750e+01
1.568000030517578125e+01,5.894164276123046875e+01
1.572000026702880859e+01,5.879454803466796875e+01
1.576000022888183594e+01,5.864682006835937500e+01
1.580000019073486328e+01,5.849542617797851562e+01
1.584000015258789062e+01,5.834029388427734375e+01
1.588000011444091797e+01,5.818399810791015625e+01
1.592000007629394531e+01,5.801304626464843750e+01
1.596000003814697266e+01,5.784226608276367188e+01
1.600000000000000000e+01,5.767025756835937500e+01
1.603999900817871094e+01,5.749713897705078125e+01
1.607999992370605469e+01,5.732405853271484375e+01
1.611999893188476562e+01,5.715823364257812500e+01
1.615999984741210938e+01,5.699238967895507812e+01
1.619999885559082031e+01,5.682662582397460938e+01
1.623999977111816406e+01,5.666082382202148438e+01
1.627999877929687500e+01,5.649511337280273438e+01
1.631999969482421875e+01,5.633789825439453125e+01
1.635999870300292969e+01,5.618067932128906250e+01
1.639999961853027344e+01,5.602341461181640625e+01
1.643999862670898438e+01,5.586615753173828125e+01
1.647999954223632812e+01,5.570888519287109375e+01
1.652000045776367188e+01,5.554215240478515625e+01
1.655999946594238281e+01,5.537548065185546875e+01
1.660000038146972656e+01,5.520878982543945312e+01
1.663999938964843750e+01,5.504218292236328125e+01
1.668000030517578125e+01,5.487561035156250000e+01
1.671999931335449219e+01,5.471227264404296875e+01
1.676000022888183594e+01,5.454891204833984375e+01
1.679999923706054688e+01,5.438552093505859375e+01
1.684000015258789062e+01,5.422223281860351562e+01
1.687999916076660156e+01,5.405889129638671875e+01
1.692000007629394531e+01,5.389654159545898438e+01
1.695999908447265625e+01,5.373416900634765625e+01
1.700000000000000000e+01,5.357225036621093750e+01
1.703999900817871094e+01,5.341074752807617188e+01
1.707999992370605469e+01,5.324924468994140625e+01
1.711999893188476562e+01,5.308592987060546875e+01
1.715999984741210938e+01,5.292263412475585938e+01
1.719999885559082031e+01,5.275942993164062500e+01
1.723999977111816406e+01,5.259631347656250000e+01
1.727999877929687500e+01,5.243933868408203125e+01
1.731999969482421875e+01,5.227743148803710938e+01
1.735999870300292969e+01,5.211563110351562500e+01
1.739999961853027344e+01,5.195389175415039062e+01
1.743999862670898438e+01,5.179199218750000000e+01
1.747999954223632812e+01,5.162960815429687500e+01
