# Start of Energy Bin (keV), Effective Area (cm^2)
1.600000023841857910e+00,1.436395645141601562e+00
1.639999985694885254e+00,1.926058053970336914e+00
1.680000066757202148e+00,2.578777074813842773e+00
1.720000028610229492e+00,3.447880268096923828e+00
1.759999990463256836e+00,4.541056632995605469e+00
1.799999952316284180e+00,5.606898784637451172e+00
1.840000033378601074e+00,3.432054519653320312e+00
1.879999995231628418e+00,4.256243705749511719e+00
1.920000076293945312e+00,5.384960174560546875e+00
1.960000038146972656e+00,6.613643646240234375e+00
2.000000000000000000e+00,7.984443664550781250e+00
2.039999961853027344e+00,9.556606292724609375e+00
2.079999923706054688e+00,1.143307876586914062e+01
2.119999885559082031e+00,1.006803321838378906e+01
2.160000085830688477e+00,1.150768184661865234e+01
2.200000047683715820e+00,1.177226734161376953e+01
2.240000009536743164e+00,1.328632831573486328e+01
2.279999971389770508e+00,1.504435443878173828e+01
2.319999933242797852e+00,1.719165039062500000e+01
2.360000133514404297e+00,1.924073219299316406e+01
2.400000095367431641e+00,2.117611122131347656e+01
2.440000057220458984e+00,2.336170005798339844e+01
2.480000019073486328e+00,2.591629409790039062e+01
2.519999980926513672e+00,2.900334739685058594e+01
2.559999942779541016e+00,3.237126541137695312e+01
2.599999904632568359e+00,3.539315032958984375e+01
2.639999866485595703e+00,3.572855758666992188e+01
2.679999828338623047e+00,3.872231292724609375e+01
2.720000028610229492e+00,4.193253707885742188e+01
2.759999990463256836e+00,4.539163970947265625e+01
2.799999952316284180e+00,4.910162734985351562e+01
2.840000152587890625e+00,5.291460037231445312e+01
2.880000114440917969e+00,5.618193817138671875e+01
2.920000076293945312e+00,5.958966064453125000e+01
2.960000038146972656e+00,6.319109344482421875e+01
3.000000000000000000e+00,6.730059814453125000e+01
3.039999961853027344e+00,6.982496643066406250e+01
3.079999923706054688e+00,7.425325775146484375e+01
3.119999885559082031e+00,7.886790466308593750e+01
3.159999847412109375e+00,8.282196807861328125e+01
3.199999809265136719e+00,8.692507171630859375e+01
3.240000009536743164e+00,9.118397521972656250e+01
3.279999971389770508e+00,9.427939605712890625e+01
3.319999933242797852e+00,9.812158966064453125e+01
3.360000133514404297e+00,1.020820693969726562e+02
3.400000095367431641e+00,1.061636962890625000e+02
3.440000057220458984e+00,1.098191833496093750e+02
3.480000019073486328e+00,1.126525573730468750e+02
3.519999980926513672e+00,1.126501770019531250e+02
3.559999942779541016e+00,1.155142669677734375e+02
3.599999904632568359e+00,1.184349822998046875e+02
3.639999866485595703e+00,1.213826980590820312e+02
3.679999828338623047e+00,1.243669204711914062e+02
3.719999790191650391e+00,1.258663330078125000e+02
3.759999752044677734e+00,1.289346313476562500e+02
3.800000190734863281e+00,1.316024169921875000e+02
3.840000152587890625e+00,1.339717254638671875e+02
3.880000114440917969e+00,1.363454132080078125e+02
3.920000076293945312e+00,1.393406677246093750e+02
3.960000038146972656e+00,1.425745239257812500e+02
4.000000000000000000e+00,1.449757690429687500e+02
4.039999961853027344e+00,1.481253814697265625e+02
4.079999923706054688e+00,1.513110046386718750e+02
4.119999885559082031e+00,1.545333709716796875e+02
4.159999847412109375e+00,1.577511291503906250e+02
4.199999809265136719e+00,1.604738311767578125e+02
4.239999771118164062e+00,1.632088317871093750e+02
4.279999732971191406e+00,1.659624023437500000e+02
4.320000171661376953e+00,1.659570007324218750e+02
4.360000133514404297e+00,1.675153808593750000e+02
4.400000095367431641e+00,1.698406219482421875e+02
4.440000057220458984e+00,1.721728515625000000e+02
4.480000019073486328e+00,1.745190124511718750e+02
4.519999980926513672e+00,1.768748779296875000e+02
4.559999942779541016e+00,1.792321166992187500e+02
4.599999904632568359e+00,1.793200378417968750e+02
4.639999866485595703e+00,1.812781372070312500e+02
4.679999828338623047e+00,1.831369018554687500e+02
4.719999790191650391e+00,1.849942779541015625e+02
4.759999752044677734e+00,1.868509216308593750e+02
4.799999713897705078e+00,1.887021331787109375e+02
4.840000152587890625e+00,1.905435943603515625e+02
4.880000114440917969e+00,1.923803863525390625e+02
4.920000076293945312e+00,1.932623596191406250e+02
4.960000038146972656e+00,1.950966644287109375e+02
5.000000000000000000e+00,1.968796081542968750e+02
5.039999961853027344e+00,1.989125976562500000e+02
5.079999923706054688e+00,2.009011230468750000e+02
5.119999885559082031e+00,2.028888854980468750e+02
5.159999847412109375e+00,2.048757171630859375e+02
5.199999809265136719e+00,2.068587493896484375e+02
5.239999771118164062e+00,2.088396301269531250e+02
5.279999732971191406e+00,2.108225402832031250e+02
5.320000171661376953e+00,2.128090362548828125e+02
5.360000133514404297e+00,2.147979736328125000e+02
5.400000095367431641e+00,2.167862243652343750e+02
5.440000057220458984e+00,2.187722320556640625e+02
5.480000019073486328e+00,2.207603912353515625e+02
5.519999980926513672e+00,2.227512664794921875e+02
5.559999942779541016e+00,2.245970611572265625e+02
5.599999904632568359e+00,2.262906646728515625e+02
5.639999866485595703e+00,2.279824829101562500e+02
5.679999828338623047e+00,2.296731262207031250e+02
5.719999790191650391e+00,2.313630371093750000e+02
5.759999752044677734e+00,2.330515441894531250e+02
5.799999713897705078e+00,2.347209930419921875e+02
5.839999675750732422e+00,2.363725738525390625e+02
5.879999637603759766e+00,2.380233001708984375e+02
5.919999599456787109e+00,2.396732940673828125e+02
5.960000038146972656e+00,2.413221740722656250e+02
6.000000000000000000e+00,2.427823028564453125e+02
6.039999961853027344e+00,2.440500793457031250e+02
6.079999923706054688e+00,2.453134155273437500e+02
6.119999885559082031e+00,2.464610595703125000e+02
6.159999847412109375e+00,2.475287780761718750e+02
6.199999809265136719e+00,2.486009368896484375e+02
6.239999771118164062e+00,2.496773223876953125e+02
6.279999732971191406e+00,2.507490539550781250e+02
6.319999694824218750e+00,2.518162078857421875e+02
6.359999656677246094e+00,2.528786010742187500e+02
6.399999618530273438e+00,2.539318389892578125e+02
6.439999580383300781e+00,2.549762573242187500e+02
6.480000019073486328e+00,2.560158691406250000e+02
6.519999980926513672e+00,2.570515136718750000e+02
6.559999942779541016e+00,2.580828247070312500e+02
6.599999904632568359e+00,2.591061401367187500e+02
6.639999866485595703e+00,2.601213378906250000e+02
6.679999828338623047e+00,2.611328735351562500e+02
6.719999790191650391e+00,2.620892944335937500e+02
6.759999752044677734e+00,2.629350585937500000e+02
6.799999713897705078e+00,2.637674865722656250e+02
6.839999675750732422e+00,2.645869445800781250e+02
6.879999637603759766e+00,2.654025268554687500e+02
6.919999599456787109e+00,2.662138671875000000e+02
6.959999561309814453e+00,2.670211791992187500e+02
7.000000000000000000e+00,2.677563781738281250e+02
7.039999961853027344e+00,2.684185791015625000e+02
7.079999923706054688e+00,2.690779113769531250e+02
7.119999885559082031e+00,2.683059082031250000e+02
7.159999847412109375e+00,2.689450073242187500e+02
7.199999809265136719e+00,2.696131896972656250e+02
7.239999771118164062e+00,2.703106079101562500e+02
7.279999732971191406e+00,2.710045776367187500e+02
7.319999694824218750e+00,2.716950683593750000e+02
7.359999656677246094e+00,2.723816833496093750e+02
7.399999618530273438e+00,2.730581054687500000e+02
7.439999580383300781e+00,2.737239685058593750e+02
7.479999542236328125e+00,2.743870849609375000e+02
7.519999980926513672e+00,2.750466003417968750e+02
7.559999942779541016e+00,2.757028808593750000e+02
7.599999904632568359e+00,2.763507690429687500e+02
7.639999866485595703e+00,2.769901123046875000e+02
7.679999828338623047e+00,2.776262817382812500e+02
7.719999790191650391e+00,2.782598571777343750e+02
7.759999752044677734e+00,2.788910522460937500e+02
7.799999713897705078e+00,2.795153808593750000e+02
7.839999675750732422e+00,2.801326599121093750e+02
7.879999637603759766e+00,2.807475280761718750e+02
7.919999599456787109e+00,2.813596496582031250e+02
7.959999561309814453e+00,2.819690551757812500e+02
7.999999523162841797e+00,2.825650939941406250e+02
8.039999961853027344e+00,2.831474914550781250e+02
8.079999923706054688e+00,2.837275695800781250e+02
8.119999885559082031e+00,2.843056335449218750e+02
8.159999847412109375e+00,2.848081970214843750e+02
8.199999809265136719e+00,2.853026733398437500e+02
8.239999771118164062e+00,2.857591552734375000e+02
8.279999732971191406e+00,2.861240234375000000e+02
8.319999694824218750e+00,2.864862365722656250e+02
8.359999656677246094e+00,2.868460083007812500e+02
8.399999618530273438e+00,2.871962890625000000e+02
8.439999580383300781e+00,2.875372009277343750e+02
8.479999542236328125e+00,2.878754272460937500e+02
8.520000457763671875e+00,2.882118530273437500e+02
8.560000419616699219e+00,2.885458068847656250e+02
8.600000381469726562e+00,2.888682250976562500e+02
8.640000343322753906e+00,2.891790466308593750e+02
8.680000305175781250e+00,2.894873962402343750e+02
8.720000267028808594e+00,2.897935180664062500e+02
8.760000228881835938e+00,2.900977783203125000e+02
8.800000190734863281e+00,2.903893737792968750e+02
8.840000152587890625e+00,2.906682739257812500e+02
8.880000114440917969e+00,2.909454956054687500e+02
8.920000076293945312e+00,2.912210083007812500e+02
8.960000038146972656e+00,2.914541625976562500e+02
9.000000000000000000e+00,2.916495361328125000e+02
9.039999961853027344e+00,2.918294677734375000e+02
9.079999923706054688e+00,2.920072937011718750e+02
9.119999885559082031e+00,2.922122192382812500e+02
9.159999847412109375e+00,2.925586853027343750e+02
9.199999809265136719e+00,2.928840637207031250e+02
9.239999771118164062e+00,2.931884765625000000e+02
9.279999732971191406e+00,2.934909362792968750e+02
9.319999694824218750e+00,2.937919921875000000e+02
9.359999656677246094e+00,2.940910339355468750e+02
9.399999618530273438e+00,2.943563842773437500e+02
9.439999580383300781e+00,2.945882568359375000e+02
9.479999542236328125e+00,2.948182373046875000e+02
9.519999504089355469e+00,2.950463256835937500e+02
9.560000419616699219e+00,2.952729187011718750e+02
9.600000381469726562e+00,2.953842163085937500e+02
9.640000343322753906e+00,2.954071044921875000e+02
9.680000305175781250e+00,2.955090942382812500e+02
9.720000267028808594e+00,2.956093444824218750e+02
9.760000228881835938e+00,2.957073974609375000e+02
9.800000190734863281e+00,2.955105895996093750e+02
9.840000152587890625e+00,2.950089721679687500e+02
9.880000114440917969e+00,2.944772949218750000e+02
9.920000076293945312e+00,2.939429321289062500e+02
9.960000038146972656e+00,2.939825439453125000e+02
1.000000000000000000e+01,2.912303466796875000e+02
1.003999996185302734e+01,2.852406616210937500e+02
1.007999992370605469e+01,2.792013549804687500e+02
1.011999988555908203e+01,2.731129455566406250e+02
1.015999984741210938e+01,2.669759521484375000e+02
1.019999980926513672e+01,2.599301452636718750e+02
1.023999977111816406e+01,2.600560607910156250e+02
1.027999973297119141e+01,2.601723327636718750e+02
1.032000064849853516e+01,2.602792053222656250e+02
1.036000061035156250e+01,2.603769836425781250e+02
1.040000057220458984e+01,2.614613037109375000e+02
1.044000053405761719e+01,2.631727600097656250e+02
1.048000049591064453e+01,2.637678527832031250e+02
1.052000045776367188e+01,2.643591918945312500e+02
1.056000041961669922e+01,2.649464721679687500e+02
1.060000038146972656e+01,2.650111694335937500e+02
1.064000034332275391e+01,2.645551147460937500e+02
1.068000030517578125e+01,2.640979919433593750e+02
1.072000026702880859e+01,2.636396484375000000e+02
1.076000022888183594e+01,2.631801757812500000e+02
1.080000019073486328e+01,2.626051025390625000e+02
1.084000015258789062e+01,2.618968505859375000e+02
1.088000011444091797e+01,2.611800231933593750e+02
1.092000007629394531e+01,2.604630126953125000e+02
1.096000003814697266e+01,2.597455749511718750e+02
1.100000000000000000e+01,2.589155578613281250e+02
1.103999996185302734e+01,2.579731445312500000e+02
1.107999992370605469e+01,2.570311584472656250e+02
1.111999988555908203e+01,2.570798950195312500e+02
1.115999984741210938e+01,2.571257934570312500e+02
1.119999980926513672e+01,2.566815490722656250e+02
1.123999977111816406e+01,2.557436370849609375e+02
1.127999973297119141e+01,2.547983856201171875e+02
1.131999969482421875e+01,2.538452148437500000e+02
1.136000061035156250e+01,2.528851928710937500e+02
1.140000057220458984e+01,2.506449127197265625e+02
1.144000053405761719e+01,2.471159362792968750e+02
1.148000049591064453e+01,2.435675811767578125e+02
1.152000045776367188e+01,2.397678833007812500e+02
1.156000041961669922e+01,2.291681213378906250e+02
1.160000038146972656e+01,2.262763671875000000e+02
1.164000034332275391e+01,2.254851379394531250e+02
1.168000030517578125e+01,2.246865692138671875e+02
1.172000026702880859e+01,2.238770904541015625e+02
1.176000022888183594e+01,2.230574645996093750e+02
1.180000019073486328e+01,2.221690368652343750e+02
1.184000015258789062e+01,2.212165069580078125e+02
1.188000011444091797e+01,2.202625885009765625e+02
1.192000007629394531e+01,2.192996368408203125e+02
1.196000003814697266e+01,2.183289184570312500e+02
1.200000000000000000e+01,2.172124328613281250e+02
1.203999996185302734e+01,2.159508972167968750e+02
1.207999992370605469e+01,2.150514526367187500e+02
1.211999988555908203e+01,2.152142028808593750e+02
1.215999984741210938e+01,2.153763885498046875e+02
1.219999980926513672e+01,2.154892425537109375e+02
1.223999977111816406e+01,2.155522460937500000e+02
1.227999973297119141e+01,2.156143035888671875e+02
1.231999969482421875e+01,2.156755218505859375e+02
1.236000061035156250e+01,2.157357635498046875e+02
1.240000057220458984e+01,2.156984863281250000e+02
1.244000053405761719e+01,2.155641632080078125e+02
1.248000049591064453e+01,2.154286651611328125e+02
1.252000045776367188e+01,2.152923583984375000e+02
1.256000041961669922e+01,2.151553039550781250e+02
1.260000038146972656e+01,2.149592285156250000e+02
1.264000034332275391e+01,2.147038574218750000e+02
1.268000030517578125e+01,2.144479980468750000e+02
1.272000026702880859e+01,2.141909484863281250e+02
1.276000022888183594e+01,2.139332427978515625e+02
1.280000019073486328e+01,2.136396636962890625e+02
1.284000015258789062e+01,2.133100891113281250e+02
1.288000011444091797e+01,2.129805145263671875e+02
1.292000007629394531e+01,2.126504058837890625e+02
1.296000003814697266e+01,2.123194580078125000e+02
1.300000000000000000e+01,2.117944335937500000e+02
1.303999996185302734e+01,2.110755157470703125e+02
1.307999992370605469e+01,2.103562774658203125e+02
1.311999988555908203e+01,2.096289062500000000e+02
1.315999984741210938e+01,2.088986816406250000e+02
1.319999980926513672e+01,2.080601501464843750e+02
1.323999977111816406e+01,2.071143646240234375e+02
1.327999973297119141e+01,2.058649291992187500e+02
1.331999969482421875e+01,2.026556701660156250e+02
1.335999965667724609e+01,2.014248046875000000e+02
1.340000057220458984e+01,2.005668640136718750e+02
1.344000053405761719e+01,2.000235748291015625e+02
1.348000049591064453e+01,1.994794006347656250e+02
1.352000045776367188e+01,1.989344482421875000e+02
1.356000041961669922e+01,1.983890075683593750e+02
1.360000038146972656e+01,1.977993774414062500e+02
1.364000034332275391e+01,1.971656188964843750e+02
1.368000030517578125e+01,1.965306091308593750e+02
1.372000026702880859e+01,1.958952178955078125e+02
1.376000022888183594e+01,1.952589111328125000e+02
1.380000019073486328e+01,1.945652923583984375e+02
1.384000015258789062e+01,1.931136627197265625e+02
1.388000011444091797e+01,1.923392028808593750e+02
1.392000007629394531e+01,1.919115295410156250e+02
1.396000003814697266e+01,1.914848480224609375e+02
1.400000000000000000e+01,1.911071472167968750e+02
1.403999996185302734e+01,1.907788238525390625e+02
1.407999992370605469e+01,1.904498596191406250e+02
1.411999988555908203e+01,1.901199493408203125e+02
1.415999984741210938e+01,1.897892913818359375e+02
1.419999980926513672e+01,1.894591827392578125e+02
1.423999977111816406e+01,1.891292572021484375e+02
1.427999973297119141e+01,1.887985992431640625e+02
1.431999969482421875e+01,1.884677734375000000e+02
1.435999965667724609e+01,1.881363983154296875e+02
1.439999961853027344e+01,1.877838745117187500e+02
1.444000053405761719e+01,1.874045715332031250e+02
1.448000049591064453e+01,1.870250549316406250e+02
1.452000045776367188e+01,1.866454772949218750e+02
1.456000041961669922e+01,1.862655181884765625e+02
1.460000038146972656e+01,1.858777008056640625e+02
1.464000034332275391e+01,1.854823303222656250e+02
1.468000030517578125e+01,1.850867462158203125e+02
1.472000026702880859e+01,1.846909637451171875e+02
1.476000022888183594e+01,1.842949218750000000e+02
1.480000019073486328e+01,1.838937377929687500e+02
1.484000015258789062e+01,1.834874267578125000e+02
1.488000011444091797e+01,1.830805053710937500e+02
1.492000007629394531e+01,1.826734008789062500e+02
1.496000003814697266e+01,1.822661590576171875e+02
1.500000000000000000e+01,1.818537902832031250e+02
1.503999996185302734e+01,1.814364624023437500e+02
1.507999992370605469e+01,1.810189208984375000e+02
1.511999988555908203e+01,1.806010742187500000e+02
1.515999984741210938e+01,1.801831817626953125e+02
1.519999980926513672e+01,1.797585144042968750e+02
1.523999977111816406e+01,1.793270263671875000e+02
1.527999973297119141e+01,1.788954162597656250e+02
1.531999969482421875e+01,1.784637908935546875e+02
1.535999965667724609e+01,1.780317840576171875e+02
1.539999961853027344e+01,1.775982055664062500e+02
1.544000053405761719e+01,1.771627655029296875e+02
1.548000049591064453e+01,1.767271575927734375e+02
1.552000045776367188e+01,1.762917633056640625e+02
1.556000041961669922e+01,1.758561401367187500e+02
1.560000038146972656e+01,1.754268341064453125e+02
1.564000034332275391e+01,1.750036010742187500e+02
1.568000030517578125e+01,1.745800323486328125e+02
1.572000026702880859e+01,1.742055664062500000e+02
1.576000022888183594e+01,1.738312377929687500e+02
1.580000019073486328e+01,1.734461364746093750e+02
1.584000015258789062e+01,1.730500335693359375e+02
1.588000011444091797e+01,1.726502227783203125e+02
1.592000007629394531e+01,1.722497863769531250e+02
1.596000003814697266e+01,1.718493347167968750e+02
1.600000000000000000e+01,1.714464263916015625e+02
1.603999900817871094e+01,1.710412750244140625e+02
1.607999992370605469e+01,1.706357421875000000e+02
1.611999893188476562e+01,1.702299499511718750e+02
1.615999984741210938e+01,1.698236541748046875e+02
1.619999885559082031e+01,1.694171752929687500e+02
1.623999977111816406e+01,1.690102081298828125e+02
1.627999877929687500e+01,1.686030731201171875e+02
1.631999969482421875e+01,1.681954803466796875e+02
1.635999870300292969e+01,1.677876281738281250e+02
1.639999961853027344e+01,1.673793640136718750e+02
1.643999862670898438e+01,1.669708709716796875e+02
1.647999954223632812e+01,1.665620880126953125e+02
1.652000045776367188e+01,1.661532592773437500e+02
1.655999946594238281e+01,1.657442016601562500e+02
1.660000038146972656e+01,1.653346557617187500e+02
1.663999938964843750e+01,1.649249114990234375e+02
1.668000030517578125e+01,1.645148620605468750e+02
1.671999931335449219e+01,1.641046142578125000e+02
1.676000022888183594e+01,1.636939392089843750e+02
1.679999923706054688e+01,1.632827758789062500e+02
1.684000015258789062e+01,1.628715667724609375e+02
1.687999916076660156e+01,1.624598236083984375e+02
1.692000007629394531e+01,1.620479736328125000e+02
1.695999908447265625e+01,1.616356964111328125e+02
1.700000000000000000e+01,1.612349853515625000e+02
1.703999900817871094e+01,1.608456726074218750e+02
1.707999992370605469e+01,1.604559326171875000e+02
1.711999893188476562e+01,1.600661315917968750e+02
1.715999984741210938e+01,1.596759185791015625e+02
1.719999885559082031e+01,1.592854766845703125e+02
1.723999977111816406e+01,1.588948211669921875e+02
1.727999877929687500e+01,1.585261688232421875e+02
1.731999969482421875e+01,1.581642608642578125e+02
1.735999870300292969e+01,1.578020782470703125e+02
1.739999961853027344e+01,1.574394531250000000e+02
1.743999862670898438e+01,1.570757141113281250e+02
1.747999954223632812e+01,1.567098999023437500e+02
