# Start of Energy Bin (keV), Effective Area (cm^2)
1.600000023841857910e+00,1.306272149085998535e+00
1.639999985694885254e+00,1.776342034339904785e+00
1.680000066757202148e+00,2.409163475036621094e+00
1.720000028610229492e+00,3.259421586990356445e+00
1.759999990463256836e+00,4.339921951293945312e+00
1.799999952316284180e+00,5.409667968750000000e+00
1.840000033378601074e+00,3.339109659194946289e+00
1.879999995231628418e+00,4.179004192352294922e+00
1.920000076293945312e+00,5.340242385864257812e+00
1.960000038146972656e+00,6.620504856109619141e+00
2.000000000000000000e+00,8.065410614013671875e+00
2.039999961853027344e+00,9.738232612609863281e+00
2.079999923706054688e+00,1.174667167663574219e+01
2.119999885559082031e+00,1.038149738311767578e+01
2.160000085830688477e+00,1.194273281097412109e+01
2.200000047683715820e+00,1.228471755981445312e+01
2.240000009536743164e+00,1.394167423248291016e+01
2.279999971389770508e+00,1.586944580078125000e+01
2.319999933242797852e+00,1.822848701477050781e+01
2.360000133514404297e+00,2.050112152099609375e+01
2.400000095367431641e+00,2.266736602783203125e+01
2.440000057220458984e+00,2.511583137512207031e+01
2.480000019073486328e+00,2.797814941406250000e+01
2.519999980926513672e+00,3.143514251708984375e+01
2.559999942779541016e+00,3.521633529663085938e+01
2.599999904632568359e+00,3.863736343383789062e+01
2.639999866485595703e+00,3.912452316284179688e+01
2.679999828338623047e+00,4.253180694580078125e+01
2.720000028610229492e+00,4.619126129150390625e+01
2.759999990463256836e+00,5.013980102539062500e+01
2.799999952316284180e+00,5.438079071044921875e+01
2.840000152587890625e+00,5.875279617309570312e+01
2.880000114440917969e+00,6.253310394287109375e+01
2.920000076293945312e+00,6.648084259033203125e+01
2.960000038146972656e+00,7.065640258789062500e+01
3.000000000000000000e+00,7.522421264648437500e+01
3.039999961853027344e+00,7.780798339843750000e+01
3.079999923706054688e+00,8.249835968017578125e+01
3.119999885559082031e+00,8.736497497558593750e+01
3.159999847412109375e+00,9.147022247314453125e+01
3.199999809265136719e+00,9.571189880371093750e+01
3.240000009536743164e+00,1.000965194702148438e+02
3.279999971389770508e+00,1.031667404174804688e+02
3.319999933242797852e+00,1.084012069702148438e+02
3.360000133514404297e+00,1.138606643676757812e+02
3.400000095367431641e+00,1.195363388061523438e+02
3.440000057220458984e+00,1.240525207519531250e+02
3.480000019073486328e+00,1.273985519409179688e+02
3.519999980926513672e+00,1.233819961547851562e+02
3.559999942779541016e+00,1.267098846435546875e+02
3.599999904632568359e+00,1.301536407470703125e+02
3.639999866485595703e+00,1.336397247314453125e+02
3.679999828338623047e+00,1.371737060546875000e+02
3.719999790191650391e+00,1.368905944824218750e+02
3.759999752044677734e+00,1.405252838134765625e+02
3.800000190734863281e+00,1.437087097167968750e+02
3.840000152587890625e+00,1.465771179199218750e+02
3.880000114440917969e+00,1.494503936767578125e+02
3.920000076293945312e+00,1.530281219482421875e+02
3.960000038146972656e+00,1.568762054443359375e+02
4.000000000000000000e+00,1.586705169677734375e+02
4.039999961853027344e+00,1.624257049560546875e+02
4.079999923706054688e+00,1.662219238281250000e+02
4.119999885559082031e+00,1.700591888427734375e+02
4.159999847412109375e+00,1.738946075439453125e+02
4.199999809265136719e+00,1.771861724853515625e+02
4.239999771118164062e+00,1.804929656982421875e+02
4.279999732971191406e+00,1.838235321044921875e+02
4.320000171661376953e+00,1.801429748535156250e+02
4.360000133514404297e+00,1.809450073242187500e+02
4.400000095367431641e+00,1.838247070312500000e+02
4.440000057220458984e+00,1.867189636230468750e+02
4.480000019073486328e+00,1.896428222656250000e+02
4.519999980926513672e+00,1.925824890136718750e+02
4.559999942779541016e+00,1.955164642333984375e+02
4.599999904632568359e+00,1.932177124023437500e+02
4.639999866485595703e+00,1.958658142089843750e+02
4.679999828338623047e+00,1.982670288085937500e+02
4.719999790191650391e+00,2.006688385009765625e+02
4.759999752044677734e+00,2.030696258544921875e+02
4.799999713897705078e+00,2.054689025878906250e+02
4.840000152587890625e+00,2.078545837402343750e+02
4.880000114440917969e+00,2.102335205078125000e+02
4.920000076293945312e+00,2.102110595703125000e+02
4.960000038146972656e+00,2.125812072753906250e+02
5.000000000000000000e+00,2.148928375244140625e+02
5.039999961853027344e+00,2.173787994384765625e+02
5.079999923706054688e+00,2.197485656738281250e+02
5.119999885559082031e+00,2.221149139404296875e+02
5.159999847412109375e+00,2.244752502441406250e+02
5.199999809265136719e+00,2.268267822265625000e+02
5.239999771118164062e+00,2.291715850830078125e+02
5.279999732971191406e+00,2.315159301757812500e+02
5.320000171661376953e+00,2.338554229736328125e+02
5.360000133514404297e+00,2.361943206787109375e+02
5.400000095367431641e+00,2.385283966064453125e+02
5.440000057220458984e+00,2.408552093505859375e+02
5.480000019073486328e+00,2.431796569824218750e+02
5.519999980926513672e+00,2.455069732666015625e+02
5.559999942779541016e+00,2.476703033447265625e+02
5.599999904632568359e+00,2.496605224609375000e+02
5.639999866485595703e+00,2.516440734863281250e+02
5.679999828338623047e+00,2.536220550537109375e+02
5.719999790191650391e+00,2.555928955078125000e+02
5.759999752044677734e+00,2.575582885742187500e+02
5.799999713897705078e+00,2.594982299804687500e+02
5.839999675750732422e+00,2.614140625000000000e+02
5.879999637603759766e+00,2.633244018554687500e+02
5.919999599456787109e+00,2.652297668457031250e+02
5.960000038146972656e+00,2.671294250488281250e+02
6.000000000000000000e+00,2.688717956542968750e+02
6.039999961853027344e+00,2.704535827636718750e+02
6.079999923706054688e+00,2.720270385742187500e+02
6.119999885559082031e+00,2.734663085937500000e+02
6.159999847412109375e+00,2.748132324218750000e+02
6.199999809265136719e+00,2.761613464355468750e+02
6.239999771118164062e+00,2.775113525390625000e+02
6.279999732971191406e+00,2.788528747558593750e+02
6.319999694824218750e+00,2.801902770996093750e+02
6.359999656677246094e+00,2.815191955566406250e+02
6.399999618530273438e+00,2.828342895507812500e+02
6.439999580383300781e+00,2.841359558105468750e+02
6.480000019073486328e+00,2.854295959472656250e+02
6.519999980926513672e+00,2.867121887207031250e+02
6.559999942779541016e+00,2.879872741699218750e+02
6.599999904632568359e+00,2.892497863769531250e+02
6.639999866485595703e+00,2.904998168945312500e+02
6.679999828338623047e+00,2.917427978515625000e+02
6.719999790191650391e+00,2.929232177734375000e+02
6.759999752044677734e+00,2.939767456054687500e+02
6.799999713897705078e+00,2.950117187500000000e+02
6.839999675750732422e+00,2.960288696289062500e+02
6.879999637603759766e+00,2.970388183593750000e+02
6.919999599456787109e+00,2.980442199707031250e+02
6.959999561309814453e+00,2.990425720214843750e+02
7.000000000000000000e+00,2.999559326171875000e+02
7.039999961853027344e+00,3.007832641601562500e+02
7.079999923706054688e+00,3.016052551269531250e+02
7.119999885559082031e+00,3.008157958984375000e+02
7.159999847412109375e+00,3.016053771972656250e+02
7.199999809265136719e+00,3.024159545898437500e+02
7.239999771118164062e+00,3.032485046386718750e+02
7.279999732971191406e+00,3.040747680664062500e+02
7.319999694824218750e+00,3.048993530273437500e+02
7.359999656677246094e+00,3.057175292968750000e+02
7.399999618530273438e+00,3.065214233398437500e+02
7.439999580383300781e+00,3.073111877441406250e+02
7.479999542236328125e+00,3.080952453613281250e+02
7.519999980926513672e+00,3.088703308105468750e+02
7.559999942779541016e+00,3.096396789550781250e+02
7.599999904632568359e+00,3.103960571289062500e+02
7.639999866485595703e+00,3.111389465332031250e+02
7.679999828338623047e+00,3.118766784667968750e+02
7.719999790191650391e+00,3.126094360351562500e+02
7.759999752044677734e+00,3.133375854492187500e+02
7.799999713897705078e+00,3.140546264648437500e+02
7.839999675750732422e+00,3.147597045898437500e+02
7.879999637603759766e+00,3.154598388671875000e+02
7.919999599456787109e+00,3.161558532714843750e+02
7.959999561309814453e+00,3.168470153808593750e+02
7.999999523162841797e+00,3.175183105468750000e+02
8.039999961853027344e+00,3.181700439453125000e+02
8.079999923706054688e+00,3.188174743652343750e+02
8.119999885559082031e+00,3.194599914550781250e+02
8.159999847412109375e+00,3.200164489746093750e+02
8.199999809265136719e+00,3.205574340820312500e+02
8.239999771118164062e+00,3.210853576660156250e+02
8.279999732971191406e+00,3.216156005859375000e+02
8.319999694824218750e+00,3.221416931152343750e+02
8.359999656677246094e+00,3.226638793945312500e+02
8.399999618530273438e+00,3.231671142578125000e+02
8.439999580383300781e+00,3.236522216796875000e+02
8.479999542236328125e+00,3.241333923339843750e+02
8.520000457763671875e+00,3.246224975585937500e+02
8.560000419616699219e+00,3.251076965332031250e+02
8.600000381469726562e+00,3.255662841796875000e+02
8.640000343322753906e+00,3.259980773925781250e+02
8.680000305175781250e+00,3.264261169433593750e+02
8.720000267028808594e+00,3.268416442871093750e+02
8.760000228881835938e+00,3.272536315917968750e+02
8.800000190734863281e+00,3.276291503906250000e+02
8.840000152587890625e+00,3.279682922363281250e+02
8.880000114440917969e+00,3.283037109375000000e+02
8.920000076293945312e+00,3.286337280273437500e+02
8.960000038146972656e+00,3.289146118164062500e+02
9.000000000000000000e+00,3.291178588867187500e+02
9.039999961853027344e+00,3.292689514160156250e+02
9.079999923706054688e+00,3.294163513183593750e+02
9.119999885559082031e+00,3.296007385253906250e+02
9.159999847412109375e+00,3.299563293457031250e+02
9.199999809265136719e+00,3.302410583496093750e+02
9.239999771118164062e+00,3.304545898437500000e+02
9.279999732971191406e+00,3.306644897460937500e+02
9.319999694824218750e+00,3.308776550292968750e+02
9.359999656677246094e+00,3.310871887207031250e+02
9.399999618530273438e+00,3.312050170898437500e+02
9.439999580383300781e+00,3.312308959960937500e+02
9.479999542236328125e+00,3.312528686523437500e+02
9.519999504089355469e+00,3.312635192871093750e+02
9.560000419616699219e+00,3.312706909179687500e+02
9.600000381469726562e+00,3.310249328613281250e+02
9.640000343322753906e+00,3.305957336425781250e+02
9.680000305175781250e+00,3.303723449707031250e+02
9.720000267028808594e+00,3.301573791503906250e+02
9.760000228881835938e+00,3.299384765625000000e+02
9.800000190734863281e+00,3.292832641601562500e+02
9.840000152587890625e+00,3.281817626953125000e+02
9.880000114440917969e+00,3.270461120605468750e+02
9.920000076293945312e+00,3.259081726074218750e+02
9.960000038146972656e+00,3.253983764648437500e+02
1.000000000000000000e+01,3.218652648925781250e+02
1.003999996185302734e+01,3.148332214355468750e+02
1.007999992370605469e+01,3.077611083984375000e+02
1.011999988555908203e+01,3.006738586425781250e+02
1.015999984741210938e+01,2.935471496582031250e+02
1.019999980926513672e+01,2.856038818359375000e+02
1.023999977111816406e+01,2.860193786621093750e+02
1.027999973297119141e+01,2.864236145019531250e+02
1.032000064849853516e+01,2.867967224121093750e+02
1.036000061035156250e+01,2.871590270996093750e+02
1.040000057220458984e+01,2.885761718750000000e+02
1.044000053405761719e+01,2.905742187500000000e+02
1.048000049591064453e+01,2.910999145507812500e+02
1.052000045776367188e+01,2.916189270019531250e+02
1.056000041961669922e+01,2.921315307617187500e+02
1.060000038146972656e+01,2.919990234375000000e+02
1.064000034332275391e+01,2.912255249023437500e+02
1.068000030517578125e+01,2.904501647949218750e+02
1.072000026702880859e+01,2.896548461914062500e+02
1.076000022888183594e+01,2.888581542968750000e+02
1.080000019073486328e+01,2.879344787597656250e+02
1.084000015258789062e+01,2.868654785156250000e+02
1.088000011444091797e+01,2.857871704101562500e+02
1.092000007629394531e+01,2.847241210937500000e+02
1.096000003814697266e+01,2.836610412597656250e+02
1.100000000000000000e+01,2.824806823730468750e+02
1.103999996185302734e+01,2.811834106445312500e+02
1.107999992370605469e+01,2.798874511718750000e+02
1.111999988555908203e+01,2.798728332519531250e+02
1.115999984741210938e+01,2.798551025390625000e+02
1.119999980926513672e+01,2.792871093750000000e+02
1.123999977111816406e+01,2.781658935546875000e+02
1.127999973297119141e+01,2.770371398925781250e+02
1.131999969482421875e+01,2.759063415527343750e+02
1.136000061035156250e+01,2.747683105468750000e+02
1.140000057220458984e+01,2.722619018554687500e+02
1.144000053405761719e+01,2.683782958984375000e+02
1.148000049591064453e+01,2.644749450683593750e+02
1.152000045776367188e+01,2.603257446289062500e+02
1.156000041961669922e+01,2.487241516113281250e+02
1.160000038146972656e+01,2.456144104003906250e+02
1.164000034332275391e+01,2.448062591552734375e+02
1.168000030517578125e+01,2.439900207519531250e+02
1.172000026702880859e+01,2.431376647949218750e+02
1.176000022888183594e+01,2.422737731933593750e+02
1.180000019073486328e+01,2.413264160156250000e+02
1.184000015258789062e+01,2.403001251220703125e+02
1.188000011444091797e+01,2.392722930908203125e+02
1.192000007629394531e+01,2.382427673339843750e+02
1.196000003814697266e+01,2.372041931152343750e+02
1.200000000000000000e+01,2.359978027343750000e+02
1.203999996185302734e+01,2.346240386962890625e+02
1.207999992370605469e+01,2.336641845703125000e+02
1.211999988555908203e+01,2.339098663330078125e+02
1.215999984741210938e+01,2.341546630859375000e+02
1.219999980926513672e+01,2.343333587646484375e+02
1.223999977111816406e+01,2.344457092285156250e+02
1.227999973297119141e+01,2.345569915771484375e+02
1.231999969482421875e+01,2.346648864746093750e+02
1.236000061035156250e+01,2.347719268798828125e+02
1.240000057220458984e+01,2.347608489990234375e+02
1.244000053405761719e+01,2.346323089599609375e+02
1.248000049591064453e+01,2.345024414062500000e+02
1.252000045776367188e+01,2.343698577880859375e+02
1.256000041961669922e+01,2.342364044189453125e+02
1.260000038146972656e+01,2.340292053222656250e+02
1.264000034332275391e+01,2.337485656738281250e+02
1.268000030517578125e+01,2.334669799804687500e+02
1.272000026702880859e+01,2.331919708251953125e+02
1.276000022888183594e+01,2.329158630371093750e+02
1.280000019073486328e+01,2.325902404785156250e+02
1.284000015258789062e+01,2.322150268554687500e+02
1.288000011444091797e+01,2.318397369384765625e+02
1.292000007629394531e+01,2.314552917480468750e+02
1.296000003814697266e+01,2.310699462890625000e+02
1.300000000000000000e+01,2.304519805908203125e+02
1.303999996185302734e+01,2.296016845703125000e+02
1.307999992370605469e+01,2.287513885498046875e+02
1.311999988555908203e+01,2.278928222656250000e+02
1.315999984741210938e+01,2.270313415527343750e+02
1.319999980926513672e+01,2.260353698730468750e+02
1.323999977111816406e+01,2.249059753417968750e+02
1.327999973297119141e+01,2.235172882080078125e+02
1.331999969482421875e+01,2.199726867675781250e+02
1.335999965667724609e+01,2.186549224853515625e+02
1.340000057220458984e+01,2.177451629638671875e+02
1.344000053405761719e+01,2.171650543212890625e+02
1.348000049591064453e+01,2.165840606689453125e+02
1.352000045776367188e+01,2.159973297119140625e+02
1.356000041961669922e+01,2.154098968505859375e+02
1.360000038146972656e+01,2.147563629150390625e+02
1.364000034332275391e+01,2.140372314453125000e+02
1.368000030517578125e+01,2.133168182373046875e+02
1.372000026702880859e+01,2.125956420898437500e+02
1.376000022888183594e+01,2.118736724853515625e+02
1.380000019073486328e+01,2.110842742919921875e+02
1.384000015258789062e+01,2.094547576904296875e+02
1.388000011444091797e+01,2.085940856933593750e+02
1.392000007629394531e+01,2.081241302490234375e+02
1.396000003814697266e+01,2.076549987792968750e+02
1.400000000000000000e+01,2.072342529296875000e+02
1.403999996185302734e+01,2.068618621826171875e+02
1.407999992370605469e+01,2.064886779785156250e+02
1.411999988555908203e+01,2.061142272949218750e+02
1.415999984741210938e+01,2.057390441894531250e+02
1.419999980926513672e+01,2.053589935302734375e+02
1.423999977111816406e+01,2.049739990234375000e+02
1.427999973297119141e+01,2.045884399414062500e+02
1.431999969482421875e+01,2.042112121582031250e+02
1.435999965667724609e+01,2.038335266113281250e+02
1.439999961853027344e+01,2.034302978515625000e+02
1.444000053405761719e+01,2.029955596923828125e+02
1.448000049591064453e+01,2.025607452392578125e+02
1.452000045776367188e+01,2.021153411865234375e+02
1.456000041961669922e+01,2.016696319580078125e+02
1.460000038146972656e+01,2.012158508300781250e+02
1.464000034332275391e+01,2.007538452148437500e+02
1.468000030517578125e+01,2.002917327880859375e+02
1.472000026702880859e+01,1.998313598632812500e+02
1.476000022888183594e+01,1.993707275390625000e+02
1.480000019073486328e+01,1.989054260253906250e+02
1.484000015258789062e+01,1.984354248046875000e+02
1.488000011444091797e+01,1.979647216796875000e+02
1.492000007629394531e+01,1.974932098388671875e+02
1.496000003814697266e+01,1.970216217041015625e+02
1.500000000000000000e+01,1.965469818115234375e+02
1.503999996185302734e+01,1.960693969726562500e+02
1.507999992370605469e+01,1.955916442871093750e+02
1.511999988555908203e+01,1.951139221191406250e+02
1.515999984741210938e+01,1.946360778808593750e+02
1.519999980926513672e+01,1.941524963378906250e+02
1.523999977111816406e+01,1.936630554199218750e+02
1.527999973297119141e+01,1.931735229492187500e+02
1.531999969482421875e+01,1.926997985839843750e+02
1.535999965667724609e+01,1.922258300781250000e+02
1.539999961853027344e+01,1.917521514892578125e+02
1.544000053405761719e+01,1.912786560058593750e+02
1.548000049591064453e+01,1.908050384521484375e+02
1.552000045776367188e+01,1.903163452148437500e+02
1.556000041961669922e+01,1.898274383544921875e+02
1.560000038146972656e+01,1.893489074707031250e+02
1.564000034332275391e+01,1.888806152343750000e+02
1.568000030517578125e+01,1.884121856689453125e+02
1.572000026702880859e+01,1.879371337890625000e+02
1.576000022888183594e+01,1.874618988037109375e+02
1.580000019073486328e+01,1.869770812988281250e+02
1.584000015258789062e+01,1.864825592041015625e+02
1.588000011444091797e+01,1.859844512939453125e+02
1.592000007629394531e+01,1.854776458740234375e+02
1.596000003814697266e+01,1.849708251953125000e+02
1.600000000000000000e+01,1.844666442871093750e+02
1.603999900817871094e+01,1.839650268554687500e+02
1.607999992370605469e+01,1.834633178710937500e+02
1.611999893188476562e+01,1.829945983886718750e+02
1.615999984741210938e+01,1.825255584716796875e+02
1.619999885559082031e+01,1.820562896728515625e+02
1.623999977111816406e+01,1.815866546630859375e+02
1.627999877929687500e+01,1.811168518066406250e+02
1.631999969482421875e+01,1.806249084472656250e+02
1.635999870300292969e+01,1.801328277587890625e+02
1.639999961853027344e+01,1.796406097412109375e+02
1.643999862670898438e+01,1.791484069824218750e+02
1.647999954223632812e+01,1.786559143066406250e+02
1.652000045776367188e+01,1.781779785156250000e+02
1.655999946594238281e+01,1.776998901367187500e+02
1.660000038146972656e+01,1.772216033935546875e+02
1.663999938964843750e+01,1.767431335449218750e+02
1.668000030517578125e+01,1.762644653320312500e+02
1.671999931335449219e+01,1.757899932861328125e+02
1.676000022888183594e+01,1.753153228759765625e+02
1.679999923706054688e+01,1.748403472900390625e+02
1.684000015258789062e+01,1.743651733398437500e+02
1.687999916076660156e+01,1.738898468017578125e+02
1.692000007629394531e+01,1.734140014648437500e+02
1.695999908447265625e+01,1.729380035400390625e+02
1.700000000000000000e+01,1.724780120849609375e+02
1.703999900817871094e+01,1.720336303710937500e+02
1.707999992370605469e+01,1.715890045166015625e+02
1.711999893188476562e+01,1.711433410644531250e+02
1.715999984741210938e+01,1.706974792480468750e+02
1.719999885559082031e+01,1.702514343261718750e+02
1.723999977111816406e+01,1.698052978515625000e+02
1.727999877929687500e+01,1.693813781738281250e+02
1.731999969482421875e+01,1.689653778076171875e+02
1.735999870300292969e+01,1.685492706298828125e+02
1.739999961853027344e+01,1.681327362060546875e+02
1.743999862670898438e+01,1.677152557373046875e+02
1.747999954223632812e+01,1.672956237792968750e+02
