# Start of Energy Bin (keV), Effective Area (cm^2)
1.600000023841857910e+00,4.438188076019287109e-01
1.639999985694885254e+00,6.033259034156799316e-01
1.680000066757202148e+00,8.178288936614990234e-01
1.720000028610229492e+00,1.105682849884033203e+00
1.759999990463256836e+00,1.470957517623901367e+00
1.799999952316284180e+00,1.829438805580139160e+00
1.840000033378601074e+00,1.125694870948791504e+00
1.879999995231628418e+00,1.409127235412597656e+00
1.920000076293945312e+00,1.806725621223449707e+00
1.960000038146972656e+00,2.247147083282470703e+00
2.000000000000000000e+00,2.747588396072387695e+00
2.039999961853027344e+00,3.330937147140502930e+00
2.079999923706054688e+00,4.033898830413818359e+00
2.119999885559082031e+00,3.490795135498046875e+00
2.160000085830688477e+00,4.025046348571777344e+00
2.200000047683715820e+00,4.109485149383544922e+00
2.240000009536743164e+00,4.667579174041748047e+00
2.279999971389770508e+00,5.317307949066162109e+00
2.319999933242797852e+00,6.114476680755615234e+00
2.360000133514404297e+00,6.883284568786621094e+00
2.400000095367431641e+00,7.617285251617431641e+00
2.440000057220458984e+00,8.449587821960449219e+00
2.480000019073486328e+00,9.427850723266601562e+00
2.519999980926513672e+00,1.061833572387695312e+01
2.559999942779541016e+00,1.192207527160644531e+01
2.599999904632568359e+00,1.310607147216796875e+01
2.639999866485595703e+00,1.321273612976074219e+01
2.679999828338623047e+00,1.438844871520996094e+01
2.720000028610229492e+00,1.565237712860107422e+01
2.759999990463256836e+00,1.701784896850585938e+01
2.799999952316284180e+00,1.848521232604980469e+01
2.840000152587890625e+00,2.000105094909667969e+01
2.880000114440917969e+00,2.131908416748046875e+01
2.920000076293945312e+00,2.269594001770019531e+01
2.960000038146972656e+00,2.415384101867675781e+01
3.000000000000000000e+00,2.568306541442871094e+01
3.039999961853027344e+00,2.639522743225097656e+01
3.079999923706054688e+00,2.786721420288085938e+01
3.119999885559082031e+00,2.938387298583984375e+01
3.159999847412109375e+00,3.063064384460449219e+01
3.199999809265136719e+00,3.190998077392578125e+01
3.240000009536743164e+00,3.322348403930664062e+01
3.279999971389770508e+00,3.404727172851562500e+01
3.319999933242797852e+00,3.614842987060546875e+01
3.360000133514404297e+00,3.836153793334960938e+01
3.400000095367431641e+00,4.067924499511718750e+01
3.440000057220458984e+00,4.234131622314453125e+01
3.480000019073486328e+00,4.351100921630859375e+01
3.519999980926513672e+00,4.207627105712890625e+01
3.559999942779541016e+00,4.323593521118164062e+01
3.599999904632568359e+00,4.443639755249023438e+01
3.639999866485595703e+00,4.565163040161132812e+01
3.679999828338623047e+00,4.688336563110351562e+01
3.719999790191650391e+00,4.676162338256835938e+01
3.759999752044677734e+00,4.802787399291992188e+01
3.800000190734863281e+00,4.913946914672851562e+01
3.840000152587890625e+00,5.014331436157226562e+01
3.880000114440917969e+00,5.114852905273437500e+01
3.920000076293945312e+00,5.240261840820312500e+01
3.960000038146972656e+00,5.375233459472656250e+01
4.000000000000000000e+00,5.437184143066406250e+01
4.039999961853027344e+00,5.569003677368164062e+01
4.079999923706054688e+00,5.702277374267578125e+01
4.119999885559082031e+00,5.837027359008789062e+01
4.159999847412109375e+00,5.971754837036132812e+01
4.199999809265136719e+00,6.087824249267578125e+01
4.239999771118164062e+00,6.204427719116210938e+01
4.279999732971191406e+00,6.321873855590820312e+01
4.320000171661376953e+00,6.188600921630859375e+01
4.360000133514404297e+00,6.216258239746093750e+01
4.400000095367431641e+00,6.318452835083007812e+01
4.440000057220458984e+00,6.421178436279296875e+01
4.480000019073486328e+00,6.524978637695312500e+01
4.519999980926513672e+00,6.629106903076171875e+01
4.559999942779541016e+00,6.733037567138671875e+01
4.599999904632568359e+00,6.649824523925781250e+01
4.639999866485595703e+00,6.744203948974609375e+01
4.679999828338623047e+00,6.829747009277343750e+01
4.719999790191650391e+00,6.915870666503906250e+01
4.759999752044677734e+00,7.001982879638671875e+01
4.799999713897705078e+00,7.088051605224609375e+01
4.840000152587890625e+00,7.173643493652343750e+01
4.880000114440917969e+00,7.259013366699218750e+01
4.920000076293945312e+00,7.257780456542968750e+01
4.960000038146972656e+00,7.342613220214843750e+01
5.000000000000000000e+00,7.425411987304687500e+01
5.039999961853027344e+00,7.510480499267578125e+01
5.079999923706054688e+00,7.589006042480468750e+01
5.119999885559082031e+00,7.667147827148437500e+01
5.159999847412109375e+00,7.744952392578125000e+01
5.199999809265136719e+00,7.822310638427734375e+01
5.239999771118164062e+00,7.899296569824218750e+01
5.279999732971191406e+00,7.976146697998046875e+01
5.320000171661376953e+00,8.052871704101562500e+01
5.360000133514404297e+00,8.129460144042968750e+01
5.400000095367431641e+00,8.205744934082031250e+01
5.440000057220458984e+00,8.281639862060546875e+01
5.480000019073486328e+00,8.357334899902343750e+01
5.519999980926513672e+00,8.432428741455078125e+01
5.559999942779541016e+00,8.501763916015625000e+01
5.599999904632568359e+00,8.565013122558593750e+01
5.639999866485595703e+00,8.627908325195312500e+01
5.679999828338623047e+00,8.690501403808593750e+01
5.719999790191650391e+00,8.753692626953125000e+01
5.759999752044677734e+00,8.816600799560546875e+01
5.799999713897705078e+00,8.878489685058593750e+01
5.839999675750732422e+00,8.939410400390625000e+01
5.879999637603759766e+00,9.000049591064453125e+01
5.919999599456787109e+00,9.059973907470703125e+01
5.960000038146972656e+00,9.119603729248046875e+01
6.000000000000000000e+00,9.175988006591796875e+01
6.039999961853027344e+00,9.229048919677734375e+01
6.079999923706054688e+00,9.281784057617187500e+01
6.119999885559082031e+00,9.329426574707031250e+01
6.159999847412109375e+00,9.373873138427734375e+01
6.199999809265136719e+00,9.418297576904296875e+01
6.239999771118164062e+00,9.462727355957031250e+01
6.279999732971191406e+00,9.506823730468750000e+01
6.319999694824218750e+00,9.551718902587890625e+01
6.359999656677246094e+00,9.596291351318359375e+01
6.399999618530273438e+00,9.640306091308593750e+01
6.439999580383300781e+00,9.683774566650390625e+01
6.480000019073486328e+00,9.726936340332031250e+01
6.519999980926513672e+00,9.769234466552734375e+01
6.559999942779541016e+00,9.811238861083984375e+01
6.599999904632568359e+00,9.852712249755859375e+01
6.639999866485595703e+00,9.893663024902343750e+01
6.679999828338623047e+00,9.934334564208984375e+01
6.719999790191650391e+00,9.972780609130859375e+01
6.759999752044677734e+00,1.000687026977539062e+02
6.799999713897705078e+00,1.004019393920898438e+02
6.839999675750732422e+00,1.007277221679687500e+02
6.879999637603759766e+00,1.010507125854492188e+02
6.919999599456787109e+00,1.013710403442382812e+02
6.959999561309814453e+00,1.016886367797851562e+02
7.000000000000000000e+00,1.019809265136718750e+02
7.039999961853027344e+00,1.022476425170898438e+02
7.079999923706054688e+00,1.025122909545898438e+02
7.119999885559082031e+00,1.022305221557617188e+02
7.159999847412109375e+00,1.024851608276367188e+02
7.199999809265136719e+00,1.027422561645507812e+02
7.239999771118164062e+00,1.030021286010742188e+02
7.279999732971191406e+00,1.032595520019531250e+02
7.319999694824218750e+00,1.035145034790039062e+02
7.359999656677246094e+00,1.037669601440429688e+02
7.399999618530273438e+00,1.040125198364257812e+02
7.439999580383300781e+00,1.042512130737304688e+02
7.479999542236328125e+00,1.044876937866210938e+02
7.519999980926513672e+00,1.047217483520507812e+02
7.559999942779541016e+00,1.049535827636718750e+02
7.599999904632568359e+00,1.051771469116210938e+02
7.639999866485595703e+00,1.053922271728515625e+02
7.679999828338623047e+00,1.056052703857421875e+02
7.719999790191650391e+00,1.058189163208007812e+02
7.759999752044677734e+00,1.060307693481445312e+02
7.799999713897705078e+00,1.062327346801757812e+02
7.839999675750732422e+00,1.064244766235351562e+02
7.879999637603759766e+00,1.066142425537109375e+02
7.919999599456787109e+00,1.068127441406250000e+02
7.959999561309814453e+00,1.070093231201171875e+02
7.999999523162841797e+00,1.071828079223632812e+02
8.039999961853027344e+00,1.073331985473632812e+02
8.079999923706054688e+00,1.074817886352539062e+02
8.119999885559082031e+00,1.076150741577148438e+02
8.159999847412109375e+00,1.077190017700195312e+02
8.199999809265136719e+00,1.078011322021484375e+02
8.239999771118164062e+00,1.078764953613281250e+02
8.279999732971191406e+00,1.079950637817382812e+02
8.319999694824218750e+00,1.081118164062500000e+02
8.359999656677246094e+00,1.082268676757812500e+02
8.399999618530273438e+00,1.083181762695312500e+02
8.439999580383300781e+00,1.083859252929687500e+02
8.479999542236328125e+00,1.084518661499023438e+02
8.520000457763671875e+00,1.085323944091796875e+02
8.560000419616699219e+00,1.086111526489257812e+02
8.600000381469726562e+00,1.086697616577148438e+02
8.640000343322753906e+00,1.087080764770507812e+02
8.680000305175781250e+00,1.087445755004882812e+02
8.720000267028808594e+00,1.087629623413085938e+02
8.760000228881835938e+00,1.087796020507812500e+02
8.800000190734863281e+00,1.087784042358398438e+02
8.840000152587890625e+00,1.087593460083007812e+02
8.880000114440917969e+00,1.087384948730468750e+02
8.920000076293945312e+00,1.087322082519531250e+02
8.960000038146972656e+00,1.087091140747070312e+02
9.000000000000000000e+00,1.086583633422851562e+02
9.039999961853027344e+00,1.085883789062500000e+02
9.079999923706054688e+00,1.085166320800781250e+02
9.119999885559082031e+00,1.084562149047851562e+02
9.159999847412109375e+00,1.084565353393554688e+02
9.199999809265136719e+00,1.084355163574218750e+02
9.239999771118164062e+00,1.083930816650390625e+02
9.279999732971191406e+00,1.083487472534179688e+02
9.319999694824218750e+00,1.082925796508789062e+02
9.359999656677246094e+00,1.082345428466796875e+02
9.399999618530273438e+00,1.081531829833984375e+02
9.439999580383300781e+00,1.080484848022460938e+02
9.479999542236328125e+00,1.079418945312500000e+02
9.519999504089355469e+00,1.078460845947265625e+02
9.560000419616699219e+00,1.077485122680664062e+02
9.600000381469726562e+00,1.075713500976562500e+02
9.640000343322753906e+00,1.073382873535156250e+02
9.680000305175781250e+00,1.071744003295898438e+02
9.720000267028808594e+00,1.070029907226562500e+02
9.760000228881835938e+00,1.068297042846679688e+02
9.800000190734863281e+00,1.064911117553710938e+02
9.840000152587890625e+00,1.059841537475585938e+02
9.880000114440917969e+00,1.054658203125000000e+02
9.920000076293945312e+00,1.049489440917968750e+02
9.960000038146972656e+00,1.046313629150390625e+02
1.000000000000000000e+01,1.032891311645507812e+02
1.003999996185302734e+01,1.007786788940429688e+02
1.007999992370605469e+01,9.826467132568359375e+01
1.011999988555908203e+01,9.573653411865234375e+01
1.015999984741210938e+01,9.320643615722656250e+01
1.019999980926513672e+01,9.042858886718750000e+01
1.023999977111816406e+01,9.062147521972656250e+01
1.027999973297119141e+01,9.081072235107421875e+01
1.032000064849853516e+01,9.102245330810546875e+01
1.036000061035156250e+01,9.123080444335937500e+01
1.040000057220458984e+01,9.178662109375000000e+01
1.044000053405761719e+01,9.251081848144531250e+01
1.048000049591064453e+01,9.267777252197265625e+01
1.052000045776367188e+01,9.281463623046875000e+01
1.056000041961669922e+01,9.294859313964843750e+01
1.060000038146972656e+01,9.283521270751953125e+01
1.064000034332275391e+01,9.247650146484375000e+01
1.068000030517578125e+01,9.211722564697265625e+01
1.072000026702880859e+01,9.176868438720703125e+01
1.076000022888183594e+01,9.141960906982421875e+01
1.080000019073486328e+01,9.102239990234375000e+01
1.084000015258789062e+01,9.057149505615234375e+01
1.088000011444091797e+01,9.011788177490234375e+01
1.092000007629394531e+01,8.965336608886718750e+01
1.096000003814697266e+01,8.918926239013671875e+01
1.100000000000000000e+01,8.868067169189453125e+01
1.103999996185302734e+01,8.812805175781250000e+01
1.107999992370605469e+01,8.757662963867187500e+01
1.111999988555908203e+01,8.751980590820312500e+01
1.115999984741210938e+01,8.746204376220703125e+01
1.119999980926513672e+01,8.719638824462890625e+01
1.123999977111816406e+01,8.672264099121093750e+01
1.127999973297119141e+01,8.624758148193359375e+01
1.131999969482421875e+01,8.577272796630859375e+01
1.136000061035156250e+01,8.529666900634765625e+01
1.140000057220458984e+01,8.440563964843750000e+01
1.144000053405761719e+01,8.309841918945312500e+01
1.148000049591064453e+01,8.178813934326171875e+01
1.152000045776367188e+01,8.039883422851562500e+01
1.156000041961669922e+01,7.664429473876953125e+01
1.160000038146972656e+01,7.565880584716796875e+01
1.164000034332275391e+01,7.538950347900390625e+01
1.168000030517578125e+01,7.511788940429687500e+01
1.172000026702880859e+01,7.484632110595703125e+01
1.176000022888183594e+01,7.457122039794921875e+01
1.180000019073486328e+01,7.423755645751953125e+01
1.184000015258789062e+01,7.384713745117187500e+01
1.188000011444091797e+01,7.345684051513671875e+01
1.192000007629394531e+01,7.306224822998046875e+01
1.196000003814697266e+01,7.266555786132812500e+01
1.200000000000000000e+01,7.221424102783203125e+01
1.203999996185302734e+01,7.170869445800781250e+01
1.207999992370605469e+01,7.135462951660156250e+01
1.211999988555908203e+01,7.144818115234375000e+01
1.215999984741210938e+01,7.154132843017578125e+01
1.219999980926513672e+01,7.160212707519531250e+01
1.223999977111816406e+01,7.163045501708984375e+01
1.227999973297119141e+01,7.165842437744140625e+01
1.231999969482421875e+01,7.167728424072265625e+01
1.236000061035156250e+01,7.169584655761718750e+01
1.240000057220458984e+01,7.166778564453125000e+01
1.244000053405761719e+01,7.159334564208984375e+01
1.248000049591064453e+01,7.151852416992187500e+01
1.252000045776367188e+01,7.144502258300781250e+01
1.256000041961669922e+01,7.137127685546875000e+01
1.260000038146972656e+01,7.127135467529296875e+01
1.264000034332275391e+01,7.114538574218750000e+01
1.268000030517578125e+01,7.101921081542968750e+01
1.272000026702880859e+01,7.089175415039062500e+01
1.276000022888183594e+01,7.076403808593750000e+01
1.280000019073486328e+01,7.061956024169921875e+01
1.284000015258789062e+01,7.045833587646484375e+01
1.288000011444091797e+01,7.029721832275390625e+01
1.292000007629394531e+01,7.014329528808593750e+01
1.296000003814697266e+01,6.998916625976562500e+01
1.300000000000000000e+01,6.976486206054687500e+01
1.303999996185302734e+01,6.947058105468750000e+01
1.307999992370605469e+01,6.917652130126953125e+01
1.311999988555908203e+01,6.887214660644531250e+01
1.315999984741210938e+01,6.856720733642578125e+01
1.319999980926513672e+01,6.822283935546875000e+01
1.323999977111816406e+01,6.783944702148437500e+01
1.327999973297119141e+01,6.743199157714843750e+01
1.331999969482421875e+01,6.632072448730468750e+01
1.335999965667724609e+01,6.594419860839843750e+01
1.340000057220458984e+01,6.568171691894531250e+01
1.344000053405761719e+01,6.550351715087890625e+01
1.348000049591064453e+01,6.532504272460937500e+01
1.352000045776367188e+01,6.516214752197265625e+01
1.356000041961669922e+01,6.499895477294921875e+01
1.360000038146972656e+01,6.481364440917968750e+01
1.364000034332275391e+01,6.460637664794921875e+01
1.368000030517578125e+01,6.439861297607421875e+01
1.372000026702880859e+01,6.417478942871093750e+01
1.376000022888183594e+01,6.395074081420898438e+01
1.380000019073486328e+01,6.370956420898437500e+01
1.384000015258789062e+01,6.320083999633789062e+01
1.388000011444091797e+01,6.293604278564453125e+01
1.392000007629394531e+01,6.281334686279296875e+01
1.396000003814697266e+01,6.269082641601562500e+01
1.400000000000000000e+01,6.258073806762695312e+01
1.403999996185302734e+01,6.248310089111328125e+01
1.407999992370605469e+01,6.238514328002929688e+01
1.411999988555908203e+01,6.227749252319335938e+01
1.415999984741210938e+01,6.216958236694335938e+01
1.419999980926513672e+01,6.205992126464843750e+01
1.423999977111816406e+01,6.194848632812500000e+01
1.427999973297119141e+01,6.183681869506835938e+01
1.431999969482421875e+01,6.172492218017578125e+01
1.435999965667724609e+01,6.161283111572265625e+01
1.439999961853027344e+01,6.149378204345703125e+01
1.444000053405761719e+01,6.136594390869140625e+01
1.448000049591064453e+01,6.123805618286132812e+01
1.452000045776367188e+01,6.110852050781250000e+01
1.456000041961669922e+01,6.097884750366210938e+01
1.460000038146972656e+01,6.084775161743164062e+01
1.464000034332275391e+01,6.071521377563476562e+01
1.468000030517578125e+01,6.058258056640625000e+01
1.472000026702880859e+01,6.045189666748046875e+01
1.476000022888183594e+01,6.032108306884765625e+01
1.480000019073486328e+01,6.018925476074218750e+01
1.484000015258789062e+01,6.005638122558593750e+01
1.488000011444091797e+01,5.992324066162109375e+01
1.492000007629394531e+01,5.979088211059570312e+01
1.496000003814697266e+01,5.965842437744140625e+01
1.500000000000000000e+01,5.952604293823242188e+01
1.503999996185302734e+01,5.939377593994140625e+01
1.507999992370605469e+01,5.926138687133789062e+01
1.511999988555908203e+01,5.912587738037109375e+01
1.515999984741210938e+01,5.899028396606445312e+01
1.519999980926513672e+01,5.885302734375000000e+01
1.523999977111816406e+01,5.871409606933593750e+01
1.527999973297119141e+01,5.857508087158203125e+01
1.531999969482421875e+01,5.843889999389648438e+01
1.535999965667724609e+01,5.830260848999023438e+01
1.539999961853027344e+01,5.816695785522460938e+01
1.544000053405761719e+01,5.803192901611328125e+01
1.548000049591064453e+01,5.789681625366210938e+01
1.552000045776367188e+01,5.776750946044921875e+01
1.556000041961669922e+01,5.763804244995117188e+01
1.560000038146972656e+01,5.751227569580078125e+01
1.564000034332275391e+01,5.739017868041992188e+01
1.568000030517578125e+01,5.726792907714843750e+01
1.572000026702880859e+01,5.711801910400390625e+01
1.576000022888183594e+01,5.696777343750000000e+01
1.580000019073486328e+01,5.681475448608398438e+01
1.584000015258789062e+01,5.665890884399414062e+01
1.588000011444091797e+01,5.650199890136718750e+01
1.592000007629394531e+01,5.634513092041015625e+01
1.596000003814697266e+01,5.618826675415039062e+01
1.600000000000000000e+01,5.603180694580078125e+01
1.603999900817871094e+01,5.587574005126953125e+01
1.607999992370605469e+01,5.571964645385742188e+01
1.611999893188476562e+01,5.556485366821289062e+01
1.615999984741210938e+01,5.541001129150390625e+01
1.619999885559082031e+01,5.525517272949218750e+01
1.623999977111816406e+01,5.510025787353515625e+01
1.627999877929687500e+01,5.494536972045898438e+01
1.631999969482421875e+01,5.479585266113281250e+01
1.635999870300292969e+01,5.464628219604492188e+01
1.639999961853027344e+01,5.449667358398437500e+01
1.643999862670898438e+01,5.434704971313476562e+01
1.647999954223632812e+01,5.419733428955078125e+01
1.652000045776367188e+01,5.404509735107421875e+01
1.655999946594238281e+01,5.389285659790039062e+01
1.660000038146972656e+01,5.374058914184570312e+01
1.663999938964843750e+01,5.358829116821289062e+01
1.668000030517578125e+01,5.343595123291015625e+01
1.671999931335449219e+01,5.328245544433593750e+01
1.676000022888183594e+01,5.312894058227539062e+01
1.679999923706054688e+01,5.297537231445312500e+01
1.684000015258789062e+01,5.282178878784179688e+01
1.687999916076660156e+01,5.266820907592773438e+01
1.692000007629394531e+01,5.251313781738281250e+01
1.695999908447265625e+01,5.235807037353515625e+01
1.700000000000000000e+01,5.220441436767578125e+01
1.703999900817871094e+01,5.205208206176757812e+01
1.707999992370605469e+01,5.189975738525390625e+01
1.711999893188476562e+01,5.175516510009765625e+01
1.715999984741210938e+01,5.161053848266601562e+01
1.719999885559082031e+01,5.146591186523437500e+01
1.723999977111816406e+01,5.132128524780273438e+01
1.727999877929687500e+01,5.118292236328125000e+01
1.731999969482421875e+01,5.103909683227539062e+01
1.735999870300292969e+01,5.089531707763671875e+01
1.739999961853027344e+01,5.075148773193359375e+01
1.743999862670898438e+01,5.060746765136718750e+01
1.747999954223632812e+01,5.046287918090820312e+01
