# Start of Energy Bin (keV), Effective Area (cm^2)
1.600000023841857910e+00,7.428146600723266602e-01
1.639999985694885254e+00,1.010197401046752930e+00
1.680000066757202148e+00,1.369929194450378418e+00
1.720000028610229492e+00,1.852890253067016602e+00
1.759999990463256836e+00,2.466065645217895508e+00
1.799999952316284180e+00,3.069054126739501953e+00
1.840000033378601074e+00,1.889935135841369629e+00
1.879999995231628418e+00,2.366167545318603516e+00
1.920000076293945312e+00,3.032775402069091797e+00
1.960000038146972656e+00,3.770796775817871094e+00
2.000000000000000000e+00,4.608581542968750000e+00
2.039999961853027344e+00,5.584152698516845703e+00
2.079999923706054688e+00,6.759161949157714844e+00
2.119999885559082031e+00,5.847868442535400391e+00
2.160000085830688477e+00,6.742437839508056641e+00
2.200000047683715820e+00,6.883777618408203125e+00
2.240000009536743164e+00,7.818897247314453125e+00
2.279999971389770508e+00,8.907564163208007812e+00
2.319999933242797852e+00,1.024203681945800781e+01
2.360000133514404297e+00,1.152876186370849609e+01
2.400000095367431641e+00,1.275707244873046875e+01
2.440000057220458984e+00,1.414992141723632812e+01
2.480000019073486328e+00,1.578696823120117188e+01
2.519999980926513672e+00,1.777917861938476562e+01
2.559999942779541016e+00,1.996105194091796875e+01
2.599999904632568359e+00,2.194276428222656250e+01
2.639999866485595703e+00,2.212073707580566406e+01
2.679999828338623047e+00,2.408926773071289062e+01
2.720000028610229492e+00,2.620545578002929688e+01
2.759999990463256836e+00,2.849166107177734375e+01
2.799999952316284180e+00,3.094858741760253906e+01
2.840000152587890625e+00,3.348629760742187500e+01
2.880000114440917969e+00,3.569255828857421875e+01
2.920000076293945312e+00,3.799713516235351562e+01
2.960000038146972656e+00,4.043732070922851562e+01
3.000000000000000000e+00,4.301893997192382812e+01
3.039999961853027344e+00,4.425619506835937500e+01
3.079999923706054688e+00,4.677151489257812500e+01
3.119999885559082031e+00,4.936738586425781250e+01
3.159999847412109375e+00,5.151483917236328125e+01
3.199999809265136719e+00,5.372170257568359375e+01
3.240000009536743164e+00,5.599089050292968750e+01
3.279999971389770508e+00,5.743917846679687500e+01
3.319999933242797852e+00,6.087327575683593750e+01
3.360000133514404297e+00,6.448474121093750000e+01
3.400000095367431641e+00,6.826258087158203125e+01
3.440000057220458984e+00,7.102285003662109375e+01
3.480000019073486328e+00,7.298666381835937500e+01
3.519999980926513672e+00,7.058209228515625000e+01
3.559999942779541016e+00,7.252957916259765625e+01
3.599999904632568359e+00,7.454562377929687500e+01
3.639999866485595703e+00,7.658657073974609375e+01
3.679999828338623047e+00,7.865534973144531250e+01
3.719999790191650391e+00,7.845330810546875000e+01
3.759999752044677734e+00,8.058002471923828125e+01
3.800000190734863281e+00,8.244743347167968750e+01
3.840000152587890625e+00,8.413420867919921875e+01
3.880000114440917969e+00,8.582341003417968750e+01
3.920000076293945312e+00,8.792745971679687500e+01
3.960000038146972656e+00,9.019111633300781250e+01
4.000000000000000000e+00,9.122954559326171875e+01
4.039999961853027344e+00,9.344030761718750000e+01
4.079999923706054688e+00,9.567541503906250000e+01
4.119999885559082031e+00,9.793563842773437500e+01
4.159999847412109375e+00,1.001954803466796875e+02
4.199999809265136719e+00,1.021422805786132812e+02
4.239999771118164062e+00,1.040980682373046875e+02
4.279999732971191406e+00,1.060679626464843750e+02
4.320000171661376953e+00,1.038314208984375000e+02
4.360000133514404297e+00,1.042941436767578125e+02
4.400000095367431641e+00,1.060071563720703125e+02
4.440000057220458984e+00,1.077290802001953125e+02
4.480000019073486328e+00,1.094689483642578125e+02
4.519999980926513672e+00,1.112108459472656250e+02
4.559999942779541016e+00,1.129492568969726562e+02
4.599999904632568359e+00,1.115483093261718750e+02
4.639999866485595703e+00,1.131264572143554688e+02
4.679999828338623047e+00,1.145562133789062500e+02
4.719999790191650391e+00,1.160021209716796875e+02
4.759999752044677734e+00,1.174478759765625000e+02
4.799999713897705078e+00,1.188930053710937500e+02
4.840000152587890625e+00,1.203301773071289062e+02
4.880000114440917969e+00,1.217636795043945312e+02
4.920000076293945312e+00,1.217413330078125000e+02
4.960000038146972656e+00,1.231626129150390625e+02
5.000000000000000000e+00,1.245497894287109375e+02
5.039999961853027344e+00,1.259867858886718750e+02
5.079999923706054688e+00,1.273219299316406250e+02
5.119999885559082031e+00,1.286508331298828125e+02
5.159999847412109375e+00,1.299744567871093750e+02
5.199999809265136719e+00,1.312910156250000000e+02
5.239999771118164062e+00,1.326017150878906250e+02
5.279999732971191406e+00,1.339105072021484375e+02
5.320000171661376953e+00,1.352173767089843750e+02
5.360000133514404297e+00,1.365223083496093750e+02
5.400000095367431641e+00,1.378225708007812500e+02
5.440000057220458984e+00,1.391167144775390625e+02
5.480000019073486328e+00,1.404078369140625000e+02
5.519999980926513672e+00,1.416834564208984375e+02
5.559999942779541016e+00,1.428625335693359375e+02
5.599999904632568359e+00,1.439396514892578125e+02
5.639999866485595703e+00,1.450111083984375000e+02
5.679999828338623047e+00,1.460776977539062500e+02
5.719999790191650391e+00,1.471668395996093750e+02
5.759999752044677734e+00,1.482516021728515625e+02
5.799999713897705078e+00,1.493197784423828125e+02
5.839999675750732422e+00,1.503721923828125000e+02
5.879999637603759766e+00,1.514202575683593750e+02
5.919999599456787109e+00,1.524507141113281250e+02
5.960000038146972656e+00,1.534764404296875000e+02
6.000000000000000000e+00,1.544407958984375000e+02
6.039999961853027344e+00,1.553423156738281250e+02
6.079999923706054688e+00,1.562384185791015625e+02
6.119999885559082031e+00,1.570429534912109375e+02
6.159999847412109375e+00,1.577936859130859375e+02
6.199999809265136719e+00,1.585442047119140625e+02
6.239999771118164062e+00,1.592949371337890625e+02
6.279999732971191406e+00,1.600400695800781250e+02
6.319999694824218750e+00,1.608096008300781250e+02
6.359999656677246094e+00,1.615738525390625000e+02
6.399999618530273438e+00,1.623290710449218750e+02
6.439999580383300781e+00,1.630754394531250000e+02
6.480000019073486328e+00,1.638167724609375000e+02
6.519999980926513672e+00,1.645383148193359375e+02
6.559999942779541016e+00,1.652549743652343750e+02
6.599999904632568359e+00,1.659630889892578125e+02
6.639999866485595703e+00,1.666627655029296875e+02
6.679999828338623047e+00,1.673578338623046875e+02
6.719999790191650391e+00,1.680156250000000000e+02
6.759999752044677734e+00,1.686001586914062500e+02
6.799999713897705078e+00,1.691722869873046875e+02
6.839999675750732422e+00,1.697324218750000000e+02
6.879999637603759766e+00,1.702879180908203125e+02
6.919999599456787109e+00,1.708392791748046875e+02
6.959999561309814453e+00,1.713861083984375000e+02
7.000000000000000000e+00,1.718899230957031250e+02
7.039999961853027344e+00,1.723502807617187500e+02
7.079999923706054688e+00,1.728072204589843750e+02
7.119999885559082031e+00,1.723426666259765625e+02
7.159999847412109375e+00,1.727824096679687500e+02
7.199999809265136719e+00,1.732281036376953125e+02
7.239999771118164062e+00,1.736802673339843750e+02
7.279999732971191406e+00,1.741284332275390625e+02
7.319999694824218750e+00,1.745723266601562500e+02
7.359999656677246094e+00,1.750121307373046875e+02
7.399999618530273438e+00,1.754414825439453125e+02
7.439999580383300781e+00,1.758604431152343750e+02
7.479999542236328125e+00,1.762757415771484375e+02
7.519999980926513672e+00,1.766870880126953125e+02
7.559999942779541016e+00,1.770947875976562500e+02
7.599999904632568359e+00,1.774906768798828125e+02
7.639999866485595703e+00,1.778744812011718750e+02
7.679999828338623047e+00,1.782549133300781250e+02
7.719999790191650391e+00,1.786340942382812500e+02
7.759999752044677734e+00,1.790102539062500000e+02
7.799999713897705078e+00,1.793735961914062500e+02
7.839999675750732422e+00,1.797235260009765625e+02
7.879999637603759766e+00,1.800702362060546875e+02
7.919999599456787109e+00,1.804185638427734375e+02
7.959999561309814453e+00,1.807636871337890625e+02
7.999999523162841797e+00,1.810782165527343750e+02
8.039999961853027344e+00,1.813622436523437500e+02
8.079999923706054688e+00,1.816433105468750000e+02
8.119999885559082031e+00,1.819146118164062500e+02
8.159999847412109375e+00,1.821364593505859375e+02
8.199999809265136719e+00,1.823306732177734375e+02
8.239999771118164062e+00,1.825181579589843750e+02
8.279999732971191406e+00,1.827650451660156250e+02
8.319999694824218750e+00,1.830172729492187500e+02
8.359999656677246094e+00,1.832668457031250000e+02
8.399999618530273438e+00,1.834782104492187500e+02
8.439999580383300781e+00,1.836516113281250000e+02
8.479999542236328125e+00,1.838221893310546875e+02
8.520000457763671875e+00,1.839905242919921875e+02
8.560000419616699219e+00,1.841560974121093750e+02
8.600000381469726562e+00,1.842796630859375000e+02
8.640000343322753906e+00,1.843608856201171875e+02
8.680000305175781250e+00,1.844392242431640625e+02
8.720000267028808594e+00,1.845086669921875000e+02
8.760000228881835938e+00,1.845753021240234375e+02
8.800000190734863281e+00,1.846073608398437500e+02
8.840000152587890625e+00,1.846047973632812500e+02
8.880000114440917969e+00,1.845993041992187500e+02
8.920000076293945312e+00,1.845986328125000000e+02
8.960000038146972656e+00,1.845695648193359375e+02
9.000000000000000000e+00,1.844963989257812500e+02
9.039999961853027344e+00,1.843934631347656250e+02
9.079999923706054688e+00,1.842877044677734375e+02
9.119999885559082031e+00,1.841997680664062500e+02
9.159999847412109375e+00,1.842135009765625000e+02
9.199999809265136719e+00,1.841923522949218750e+02
9.239999771118164062e+00,1.841361389160156250e+02
9.279999732971191406e+00,1.840769348144531250e+02
9.319999694824218750e+00,1.840340423583984375e+02
9.359999656677246094e+00,1.839881591796875000e+02
9.399999618530273438e+00,1.838979797363281250e+02
9.439999580383300781e+00,1.837634277343750000e+02
9.479999542236328125e+00,1.836258239746093750e+02
9.519999504089355469e+00,1.834711914062500000e+02
9.560000419616699219e+00,1.833137664794921875e+02
9.600000381469726562e+00,1.830172424316406250e+02
9.640000343322753906e+00,1.826218872070312500e+02
9.680000305175781250e+00,1.823444366455078125e+02
9.720000267028808594e+00,1.820643615722656250e+02
9.760000228881835938e+00,1.817813110351562500e+02
9.800000190734863281e+00,1.812204132080078125e+02
9.840000152587890625e+00,1.803765869140625000e+02
9.880000114440917969e+00,1.795135803222656250e+02
9.920000076293945312e+00,1.786472015380859375e+02
9.960000038146972656e+00,1.781210937500000000e+02
1.000000000000000000e+01,1.758853759765625000e+02
1.003999996185302734e+01,1.716927947998046875e+02
1.007999992370605469e+01,1.674912414550781250e+02
1.011999988555908203e+01,1.632773437500000000e+02
1.015999984741210938e+01,1.590562744140625000e+02
1.019999980926513672e+01,1.544120788574218750e+02
1.023999977111816406e+01,1.547250366210937500e+02
1.027999973297119141e+01,1.550317993164062500e+02
1.032000064849853516e+01,1.553596038818359375e+02
1.036000061035156250e+01,1.556815948486328125e+02
1.040000057220458984e+01,1.565907592773437500e+02
1.044000053405761719e+01,1.577907409667968750e+02
1.048000049591064453e+01,1.580687866210937500e+02
1.052000045776367188e+01,1.583098144531250000e+02
1.056000041961669922e+01,1.585461883544921875e+02
1.060000038146972656e+01,1.583759307861328125e+02
1.064000034332275391e+01,1.578022308349609375e+02
1.068000030517578125e+01,1.572275390625000000e+02
1.072000026702880859e+01,1.566587829589843750e+02
1.076000022888183594e+01,1.560892028808593750e+02
1.080000019073486328e+01,1.554410552978515625e+02
1.084000015258789062e+01,1.547047729492187500e+02
1.088000011444091797e+01,1.539638214111328125e+02
1.092000007629394531e+01,1.532213745117187500e+02
1.096000003814697266e+01,1.524794158935546875e+02
1.100000000000000000e+01,1.516645812988281250e+02
1.103999996185302734e+01,1.507775268554687500e+02
1.107999992370605469e+01,1.498921203613281250e+02
1.111999988555908203e+01,1.498147583007812500e+02
1.115999984741210938e+01,1.497357940673828125e+02
1.119999980926513672e+01,1.493145751953125000e+02
1.123999977111816406e+01,1.485505218505859375e+02
1.127999973297119141e+01,1.477838287353515625e+02
1.131999969482421875e+01,1.470099639892578125e+02
1.136000061035156250e+01,1.462337341308593750e+02
1.140000057220458984e+01,1.447377014160156250e+02
1.144000053405761719e+01,1.425194702148437500e+02
1.148000049591064453e+01,1.402953033447265625e+02
1.152000045776367188e+01,1.379435272216796875e+02
1.156000041961669922e+01,1.314984741210937500e+02
1.160000038146972656e+01,1.298078308105468750e+02
1.164000034332275391e+01,1.293507385253906250e+02
1.168000030517578125e+01,1.288896026611328125e+02
1.172000026702880859e+01,1.284338378906250000e+02
1.176000022888183594e+01,1.279719543457031250e+02
1.180000019073486328e+01,1.274227294921875000e+02
1.184000015258789062e+01,1.267891387939453125e+02
1.188000011444091797e+01,1.261554107666015625e+02
1.192000007629394531e+01,1.255113372802734375e+02
1.196000003814697266e+01,1.248633575439453125e+02
1.200000000000000000e+01,1.241211395263671875e+02
1.203999996185302734e+01,1.232852783203125000e+02
1.207999992370605469e+01,1.227013397216796875e+02
1.211999988555908203e+01,1.228497924804687500e+02
1.215999984741210938e+01,1.229975128173828125e+02
1.219999980926513672e+01,1.230934677124023438e+02
1.223999977111816406e+01,1.231375122070312500e+02
1.227999973297119141e+01,1.231809234619140625e+02
1.231999969482421875e+01,1.232164154052734375e+02
1.236000061035156250e+01,1.232514038085937500e+02
1.240000057220458984e+01,1.232088623046875000e+02
1.244000053405761719e+01,1.230892410278320312e+02
1.248000049591064453e+01,1.229689483642578125e+02
1.252000045776367188e+01,1.228571395874023438e+02
1.256000041961669922e+01,1.227448959350585938e+02
1.260000038146972656e+01,1.225875930786132812e+02
1.264000034332275391e+01,1.223854064941406250e+02
1.268000030517578125e+01,1.221828460693359375e+02
1.272000026702880859e+01,1.219750518798828125e+02
1.276000022888183594e+01,1.217667846679687500e+02
1.280000019073486328e+01,1.215287322998046875e+02
1.284000015258789062e+01,1.212608718872070312e+02
1.288000011444091797e+01,1.209931716918945312e+02
1.292000007629394531e+01,1.207249908447265625e+02
1.296000003814697266e+01,1.204564819335937500e+02
1.300000000000000000e+01,1.200626525878906250e+02
1.303999996185302734e+01,1.195438842773437500e+02
1.307999992370605469e+01,1.190255889892578125e+02
1.311999988555908203e+01,1.185073242187500000e+02
1.315999984741210938e+01,1.179879989624023438e+02
1.319999980926513672e+01,1.173980560302734375e+02
1.323999977111816406e+01,1.167381744384765625e+02
1.327999973297119141e+01,1.160313568115234375e+02
1.331999969482421875e+01,1.141136093139648438e+02
1.335999965667724609e+01,1.134550781250000000e+02
1.340000057220458984e+01,1.129958038330078125e+02
1.344000053405761719e+01,1.126862487792968750e+02
1.348000049591064453e+01,1.123762207031250000e+02
1.352000045776367188e+01,1.120773468017578125e+02
1.356000041961669922e+01,1.117780456542968750e+02
1.360000038146972656e+01,1.114396514892578125e+02
1.364000034332275391e+01,1.110624542236328125e+02
1.368000030517578125e+01,1.106845245361328125e+02
1.372000026702880859e+01,1.102985992431640625e+02
1.376000022888183594e+01,1.099122924804687500e+02
1.380000019073486328e+01,1.094953842163085938e+02
1.384000015258789062e+01,1.086174926757812500e+02
1.388000011444091797e+01,1.081629333496093750e+02
1.392000007629394531e+01,1.079345016479492188e+02
1.396000003814697266e+01,1.077064361572265625e+02
1.400000000000000000e+01,1.075002593994140625e+02
1.403999996185302734e+01,1.073159561157226562e+02
1.407999992370605469e+01,1.071311645507812500e+02
1.411999988555908203e+01,1.069374237060546875e+02
1.415999984741210938e+01,1.067432708740234375e+02
1.419999980926513672e+01,1.065458221435546875e+02
1.423999977111816406e+01,1.063450317382812500e+02
1.427999973297119141e+01,1.061438598632812500e+02
1.431999969482421875e+01,1.059490051269531250e+02
1.435999965667724609e+01,1.057538146972656250e+02
1.439999961853027344e+01,1.055463104248046875e+02
1.444000053405761719e+01,1.053233718872070312e+02
1.448000049591064453e+01,1.051003646850585938e+02
1.452000045776367188e+01,1.048697052001953125e+02
1.456000041961669922e+01,1.046388473510742188e+02
1.460000038146972656e+01,1.044053344726562500e+02
1.464000034332275391e+01,1.041691055297851562e+02
1.468000030517578125e+01,1.039327545166015625e+02
1.472000026702880859e+01,1.037030944824218750e+02
1.476000022888183594e+01,1.034732284545898438e+02
1.480000019073486328e+01,1.032417602539062500e+02
1.484000015258789062e+01,1.030086517333984375e+02
1.488000011444091797e+01,1.027751007080078125e+02
1.492000007629394531e+01,1.025386810302734375e+02
1.496000003814697266e+01,1.023021316528320312e+02
1.500000000000000000e+01,1.020656890869140625e+02
1.503999996185302734e+01,1.018294372558593750e+02
1.507999992370605469e+01,1.015930252075195312e+02
1.511999988555908203e+01,1.013556365966796875e+02
1.515999984741210938e+01,1.011181030273437500e+02
1.519999980926513672e+01,1.008778228759765625e+02
1.523999977111816406e+01,1.006347122192382812e+02
1.527999973297119141e+01,1.003914871215820312e+02
1.531999969482421875e+01,1.001486511230468750e+02
1.535999965667724609e+01,9.990565490722656250e+01
1.539999961853027344e+01,9.966361236572265625e+01
1.544000053405761719e+01,9.942246246337890625e+01
1.548000049591064453e+01,9.918121337890625000e+01
1.552000045776367188e+01,9.894254302978515625e+01
1.556000041961669922e+01,9.870364379882812500e+01
1.560000038146972656e+01,9.847105407714843750e+01
1.564000034332275391e+01,9.824471282958984375e+01
1.568000030517578125e+01,9.801817321777343750e+01
1.572000026702880859e+01,9.776011657714843750e+01
1.576000022888183594e+01,9.750160217285156250e+01
1.580000019073486328e+01,9.723829650878906250e+01
1.584000015258789062e+01,9.697014617919921875e+01
1.588000011444091797e+01,9.670015716552734375e+01
1.592000007629394531e+01,9.642987823486328125e+01
1.596000003814697266e+01,9.615962219238281250e+01
1.600000000000000000e+01,9.589006042480468750e+01
1.603999900817871094e+01,9.562117767333984375e+01
1.607999992370605469e+01,9.535227203369140625e+01
1.611999893188476562e+01,9.508436584472656250e+01
1.615999984741210938e+01,9.481639099121093750e+01
1.619999885559082031e+01,9.454843902587890625e+01
1.623999977111816406e+01,9.428038024902343750e+01
1.627999877929687500e+01,9.401235961914062500e+01
1.631999969482421875e+01,9.374772644042968750e+01
1.635999870300292969e+01,9.348306274414062500e+01
1.639999961853027344e+01,9.321836853027343750e+01
1.643999862670898438e+01,9.295369720458984375e+01
1.647999954223632812e+01,9.268891143798828125e+01
1.652000045776367188e+01,9.243150329589843750e+01
1.655999946594238281e+01,9.217404174804687500e+01
1.660000038146972656e+01,9.191652679443359375e+01
1.663999938964843750e+01,9.165895080566406250e+01
1.668000030517578125e+01,9.140128326416015625e+01
1.671999931335449219e+01,9.113525390625000000e+01
1.676000022888183594e+01,9.086921691894531250e+01
1.679999923706054688e+01,9.060310363769531250e+01
1.684000015258789062e+01,9.033699035644531250e+01
1.687999916076660156e+01,9.007088470458984375e+01
1.692000007629394531e+01,8.980761718750000000e+01
1.695999908447265625e+01,8.954434967041015625e+01
1.700000000000000000e+01,8.928686523437500000e+01
1.703999900817871094e+01,8.903498077392578125e+01
1.707999992370605469e+01,8.878305816650390625e+01
1.711999893188476562e+01,8.853649902343750000e+01
1.715999984741210938e+01,8.828987884521484375e+01
1.719999885559082031e+01,8.804325866699218750e+01
1.723999977111816406e+01,8.779663848876953125e+01
1.727999877929687500e+01,8.756089782714843750e+01
1.731999969482421875e+01,8.731970977783203125e+01
1.735999870300292969e+01,8.707857513427734375e+01
1.739999961853027344e+01,8.683733367919921875e+01
1.743999862670898438e+01,8.659573364257812500e+01
1.747999954223632812e+01,8.635314178466796875e+01
