# Start of Energy Bin (keV), Effective Area (cm^2)
1.600000023841857910e+00,1.307572841644287109e+00
1.639999985694885254e+00,1.778980731964111328e+00
1.680000066757202148e+00,2.413690090179443359e+00
1.720000028610229492e+00,3.266560554504394531e+00
1.759999990463256836e+00,4.350395202636718750e+00
1.799999952316284180e+00,5.422507762908935547e+00
1.840000033378601074e+00,3.346287250518798828e+00
1.879999995231628418e+00,4.189045906066894531e+00
1.920000076293945312e+00,5.357201576232910156e+00
1.960000038146972656e+00,6.646460056304931641e+00
2.000000000000000000e+00,8.103480339050292969e+00
2.039999961853027344e+00,9.792284965515136719e+00
2.079999923706054688e+00,1.182092475891113281e+01
2.119999885559082031e+00,1.117558002471923828e+01
2.160000085830688477e+00,1.283601856231689453e+01
2.200000047683715820e+00,1.349984550476074219e+01
2.240000009536743164e+00,1.532994651794433594e+01
2.279999971389770508e+00,1.745903968811035156e+01
2.319999933242797852e+00,2.007062721252441406e+01
2.360000133514404297e+00,2.259723091125488281e+01
2.400000095367431641e+00,2.500966453552246094e+01
2.440000057220458984e+00,2.771557617187500000e+01
2.480000019073486328e+00,3.083936119079589844e+01
2.519999980926513672e+00,3.453726959228515625e+01
2.559999942779541016e+00,3.856925964355468750e+01
2.599999904632568359e+00,4.218788528442382812e+01
2.639999866485595703e+00,4.325613403320312500e+01
2.679999828338623047e+00,4.688178634643554688e+01
2.720000028610229492e+00,5.077429580688476562e+01
2.759999990463256836e+00,5.496302032470703125e+01
2.799999952316284180e+00,5.945568847656250000e+01
2.840000152587890625e+00,6.407798004150390625e+01
2.880000114440917969e+00,6.803984069824218750e+01
2.920000076293945312e+00,7.217333984375000000e+01
2.960000038146972656e+00,7.653469085693359375e+01
3.000000000000000000e+00,8.121611022949218750e+01
3.039999961853027344e+00,8.421031951904296875e+01
3.079999923706054688e+00,8.900804901123046875e+01
3.119999885559082031e+00,9.397209930419921875e+01
3.159999847412109375e+00,9.809595489501953125e+01
3.199999809265136719e+00,1.023492050170898438e+02
3.240000009536743164e+00,1.067379302978515625e+02
3.279999971389770508e+00,1.100531692504882812e+02
3.319999933242797852e+00,1.156455535888671875e+02
3.360000133514404297e+00,1.214834899902343750e+02
3.400000095367431641e+00,1.275559997558593750e+02
3.440000057220458984e+00,1.322193145751953125e+02
3.480000019073486328e+00,1.355713806152343750e+02
3.519999980926513672e+00,1.297955169677734375e+02
3.559999942779541016e+00,1.331305541992187500e+02
3.599999904632568359e+00,1.366011199951171875e+02
3.639999866485595703e+00,1.401170654296875000e+02
3.679999828338623047e+00,1.436828918457031250e+02
3.719999790191650391e+00,1.425517578125000000e+02
3.759999752044677734e+00,1.462183532714843750e+02
3.800000190734863281e+00,1.494074554443359375e+02
3.840000152587890625e+00,1.522714996337890625e+02
3.880000114440917969e+00,1.551402893066406250e+02
3.920000076293945312e+00,1.587587280273437500e+02
3.960000038146972656e+00,1.626579742431640625e+02
4.000000000000000000e+00,1.640615997314453125e+02
4.039999961853027344e+00,1.678609161376953125e+02
4.079999923706054688e+00,1.717010040283203125e+02
4.119999885559082031e+00,1.755650634765625000e+02
4.159999847412109375e+00,1.794261169433593750e+02
4.199999809265136719e+00,1.827253875732421875e+02
4.239999771118164062e+00,1.860399169921875000e+02
4.279999732971191406e+00,1.893793945312500000e+02
4.320000171661376953e+00,1.842394561767578125e+02
4.360000133514404297e+00,1.846012115478515625e+02
4.400000095367431641e+00,1.874858093261718750e+02
4.440000057220458984e+00,1.903871459960937500e+02
4.480000019073486328e+00,1.933235473632812500e+02
4.519999980926513672e+00,1.962685089111328125e+02
4.559999942779541016e+00,1.992050781250000000e+02
4.599999904632568359e+00,1.959311370849609375e+02
4.639999866485595703e+00,1.986270751953125000e+02
4.679999828338623047e+00,2.010271148681640625e+02
4.719999790191650391e+00,2.034449615478515625e+02
4.759999752044677734e+00,2.058622436523437500e+02
4.799999713897705078e+00,2.082805480957031250e+02
4.840000152587890625e+00,2.106853332519531250e+02
4.880000114440917969e+00,2.130839538574218750e+02
4.920000076293945312e+00,2.126081085205078125e+02
4.960000038146972656e+00,2.149919281005859375e+02
5.000000000000000000e+00,2.173166656494140625e+02
5.039999961853027344e+00,2.197962646484375000e+02
5.079999923706054688e+00,2.221433563232421875e+02
5.119999885559082031e+00,2.244896087646484375e+02
5.159999847412109375e+00,2.268294372558593750e+02
5.199999809265136719e+00,2.291598358154296875e+02
5.239999771118164062e+00,2.314830474853515625e+02
5.279999732971191406e+00,2.338059844970703125e+02
5.320000171661376953e+00,2.361191558837890625e+02
5.360000133514404297e+00,2.384315032958984375e+02
5.400000095367431641e+00,2.407385406494140625e+02
5.440000057220458984e+00,2.430374603271484375e+02
5.480000019073486328e+00,2.453333740234375000e+02
5.519999980926513672e+00,2.476400756835937500e+02
5.559999942779541016e+00,2.497809906005859375e+02
5.599999904632568359e+00,2.517469024658203125e+02
5.639999866485595703e+00,2.537044372558593750e+02
5.679999828338623047e+00,2.556560974121093750e+02
5.719999790191650391e+00,2.576134338378906250e+02
5.759999752044677734e+00,2.595656127929687500e+02
5.799999713897705078e+00,2.614918823242187500e+02
5.839999675750732422e+00,2.633936462402343750e+02
5.879999637603759766e+00,2.652896118164062500e+02
5.919999599456787109e+00,2.671413879394531250e+02
5.960000038146972656e+00,2.689866638183593750e+02
6.000000000000000000e+00,2.706856994628906250e+02
6.039999961853027344e+00,2.722355651855468750e+02
6.079999923706054688e+00,2.737768249511718750e+02
6.119999885559082031e+00,2.752151489257812500e+02
6.159999847412109375e+00,2.765605468750000000e+02
6.199999809265136719e+00,2.779069519042968750e+02
6.239999771118164062e+00,2.792554931640625000e+02
6.279999732971191406e+00,2.805957946777343750e+02
6.319999694824218750e+00,2.819284362792968750e+02
6.359999656677246094e+00,2.832526245117187500e+02
6.399999618530273438e+00,2.845627136230468750e+02
6.439999580383300781e+00,2.858591613769531250e+02
6.480000019073486328e+00,2.871478881835937500e+02
6.519999980926513672e+00,2.884074707031250000e+02
6.559999942779541016e+00,2.896595764160156250e+02
6.599999904632568359e+00,2.908986206054687500e+02
6.639999866485595703e+00,2.921248168945312500e+02
6.679999828338623047e+00,2.933437805175781250e+02
6.719999790191650391e+00,2.944935607910156250e+02
6.759999752044677734e+00,2.955155944824218750e+02
6.799999713897705078e+00,2.965185852050781250e+02
6.839999675750732422e+00,2.975030212402343750e+02
6.879999637603759766e+00,2.984799804687500000e+02
6.919999599456787109e+00,2.994773559570312500e+02
6.959999561309814453e+00,3.004678344726562500e+02
7.000000000000000000e+00,3.013735961914062500e+02
7.039999961853027344e+00,3.021936035156250000e+02
7.079999923706054688e+00,3.030080261230468750e+02
7.119999885559082031e+00,3.022070617675781250e+02
7.159999847412109375e+00,3.029924621582031250e+02
7.199999809265136719e+00,3.037968444824218750e+02
7.239999771118164062e+00,3.046211853027343750e+02
7.279999732971191406e+00,3.054391784667968750e+02
7.319999694824218750e+00,3.062254943847656250e+02
7.359999656677246094e+00,3.070052185058593750e+02
7.399999618530273438e+00,3.077701416015625000e+02
7.439999580383300781e+00,3.085205078125000000e+02
7.479999542236328125e+00,3.092650756835937500e+02
7.519999980926513672e+00,3.100379638671875000e+02
7.559999942779541016e+00,3.108052673339843750e+02
7.599999904632568359e+00,3.115585021972656250e+02
7.639999866485595703e+00,3.122973632812500000e+02
7.679999828338623047e+00,3.130311889648437500e+02
7.719999790191650391e+00,3.137416992187500000e+02
7.759999752044677734e+00,3.144476013183593750e+02
7.799999713897705078e+00,3.151409301757812500e+02
7.839999675750732422e+00,3.158208923339843750e+02
7.879999637603759766e+00,3.164958496093750000e+02
7.919999599456787109e+00,3.171611022949218750e+02
7.959999561309814453e+00,3.178214111328125000e+02
7.999999523162841797e+00,3.184586791992187500e+02
8.039999961853027344e+00,3.190729980468750000e+02
8.079999923706054688e+00,3.196829528808593750e+02
8.119999885559082031e+00,3.202958068847656250e+02
8.159999847412109375e+00,3.208223571777343750e+02
8.199999809265136719e+00,3.213302917480468750e+02
8.239999771118164062e+00,3.218302612304687500e+02
8.279999732971191406e+00,3.223570861816406250e+02
8.319999694824218750e+00,3.228779907226562500e+02
8.359999656677246094e+00,3.233950195312500000e+02
8.399999618530273438e+00,3.238880615234375000e+02
8.439999580383300781e+00,3.243579406738281250e+02
8.479999542236328125e+00,3.248239135742187500e+02
8.520000457763671875e+00,3.252846374511718750e+02
8.560000419616699219e+00,3.257413330078125000e+02
8.600000381469726562e+00,3.261624755859375000e+02
8.640000343322753906e+00,3.265475769042968750e+02
8.680000305175781250e+00,3.269288635253906250e+02
8.720000267028808594e+00,3.273045959472656250e+02
8.760000228881835938e+00,3.276766357421875000e+02
8.800000190734863281e+00,3.279986572265625000e+02
8.840000152587890625e+00,3.282705688476562500e+02
8.880000114440917969e+00,3.285386047363281250e+02
8.920000076293945312e+00,3.288098144531250000e+02
8.960000038146972656e+00,3.290315856933593750e+02
9.000000000000000000e+00,3.291616821289062500e+02
9.039999961853027344e+00,3.292253112792968750e+02
9.079999923706054688e+00,3.292850036621093750e+02
9.119999885559082031e+00,3.294074707031250000e+02
9.159999847412109375e+00,3.297037353515625000e+02
9.199999809265136719e+00,3.299219970703125000e+02
9.239999771118164062e+00,3.300617675781250000e+02
9.279999732971191406e+00,3.301975708007812500e+02
9.319999694824218750e+00,3.303013305664062500e+02
9.359999656677246094e+00,3.304011230468750000e+02
9.399999618530273438e+00,3.304163208007812500e+02
9.439999580383300781e+00,3.303466796875000000e+02
9.479999542236328125e+00,3.302729797363281250e+02
9.519999504089355469e+00,3.301984558105468750e+02
9.560000419616699219e+00,3.301202087402343750e+02
9.600000381469726562e+00,3.297700500488281250e+02
9.640000343322753906e+00,3.292298889160156250e+02
9.680000305175781250e+00,3.289323120117187500e+02
9.720000267028808594e+00,3.286578674316406250e+02
9.760000228881835938e+00,3.283791503906250000e+02
9.800000190734863281e+00,3.276432189941406250e+02
9.840000152587890625e+00,3.264400329589843750e+02
9.880000114440917969e+00,3.252028198242187500e+02
9.920000076293945312e+00,3.239682006835937500e+02
9.960000038146972656e+00,3.233561096191406250e+02
1.000000000000000000e+01,3.197252807617187500e+02
1.003999996185302734e+01,3.126082458496093750e+02
1.007999992370605469e+01,3.054561767578125000e+02
1.011999988555908203e+01,2.982695617675781250e+02
1.015999984741210938e+01,2.910499267578125000e+02
1.019999980926513672e+01,2.830497436523437500e+02
1.023999977111816406e+01,2.835063476562500000e+02
1.027999973297119141e+01,2.839519042968750000e+02
1.032000064849853516e+01,2.843753051757812500e+02
1.036000061035156250e+01,2.847880859375000000e+02
1.040000057220458984e+01,2.862478637695312500e+02
1.044000053405761719e+01,2.882673950195312500e+02
1.048000049591064453e+01,2.887725524902343750e+02
1.052000045776367188e+01,2.892828369140625000e+02
1.056000041961669922e+01,2.897864074707031250e+02
1.060000038146972656e+01,2.896282958984375000e+02
1.064000034332275391e+01,2.888128051757812500e+02
1.068000030517578125e+01,2.879953918457031250e+02
1.072000026702880859e+01,2.871446228027343750e+02
1.076000022888183594e+01,2.862924804687500000e+02
1.080000019073486328e+01,2.853127746582031250e+02
1.084000015258789062e+01,2.841873474121093750e+02
1.088000011444091797e+01,2.830529174804687500e+02
1.092000007629394531e+01,2.819231567382812500e+02
1.096000003814697266e+01,2.807936401367187500e+02
1.100000000000000000e+01,2.795466613769531250e+02
1.103999996185302734e+01,2.781826782226562500e+02
1.107999992370605469e+01,2.768203430175781250e+02
1.111999988555908203e+01,2.768066101074218750e+02
1.115999984741210938e+01,2.767898559570312500e+02
1.119999980926513672e+01,2.762134094238281250e+02
1.123999977111816406e+01,2.750744323730468750e+02
1.127999973297119141e+01,2.739283142089843750e+02
1.131999969482421875e+01,2.727490539550781250e+02
1.136000061035156250e+01,2.715631713867187500e+02
1.140000057220458984e+01,2.690250244140625000e+02
1.144000053405761719e+01,2.651269836425781250e+02
1.148000049591064453e+01,2.612111511230468750e+02
1.152000045776367188e+01,2.570362854003906250e+02
1.156000041961669922e+01,2.468585052490234375e+02
1.160000038146972656e+01,2.437217407226562500e+02
1.164000034332275391e+01,2.428836059570312500e+02
1.168000030517578125e+01,2.420377197265625000e+02
1.172000026702880859e+01,2.411922607421875000e+02
1.176000022888183594e+01,2.403363189697265625e+02
1.180000019073486328e+01,2.393850708007812500e+02
1.184000015258789062e+01,2.383432617187500000e+02
1.188000011444091797e+01,2.373002166748046875e+02
1.192000007629394531e+01,2.362416992187500000e+02
1.196000003814697266e+01,2.351746673583984375e+02
1.200000000000000000e+01,2.339388427734375000e+02
1.203999996185302734e+01,2.325348358154296875e+02
1.207999992370605469e+01,2.315534362792968750e+02
1.211999988555908203e+01,2.317941284179687500e+02
1.215999984741210938e+01,2.320339660644531250e+02
1.219999980926513672e+01,2.322022247314453125e+02
1.223999977111816406e+01,2.322986907958984375e+02
1.227999973297119141e+01,2.323941955566406250e+02
1.231999969482421875e+01,2.325076599121093750e+02
1.236000061035156250e+01,2.326203308105468750e+02
1.240000057220458984e+01,2.326104431152343750e+02
1.244000053405761719e+01,2.324785461425781250e+02
1.248000049591064453e+01,2.323454895019531250e+02
1.252000045776367188e+01,2.321962127685546875e+02
1.256000041961669922e+01,2.320461883544921875e+02
1.260000038146972656e+01,2.318204345703125000e+02
1.264000034332275391e+01,2.315191650390625000e+02
1.268000030517578125e+01,2.312171173095703125e+02
1.272000026702880859e+01,2.309115600585937500e+02
1.276000022888183594e+01,2.306050720214843750e+02
1.280000019073486328e+01,2.302471923828125000e+02
1.284000015258789062e+01,2.298378143310546875e+02
1.288000011444091797e+01,2.294283599853515625e+02
1.292000007629394531e+01,2.290109405517578125e+02
1.296000003814697266e+01,2.285928497314453125e+02
1.300000000000000000e+01,2.279391021728515625e+02
1.303999996185302734e+01,2.270502166748046875e+02
1.307999992370605469e+01,2.261617431640625000e+02
1.311999988555908203e+01,2.252714233398437500e+02
1.315999984741210938e+01,2.243786315917968750e+02
1.319999980926513672e+01,2.233488311767578125e+02
1.323999977111816406e+01,2.221830902099609375e+02
1.327999973297119141e+01,2.208019104003906250e+02
1.331999969482421875e+01,2.177835388183593750e+02
1.335999965667724609e+01,2.164880523681640625e+02
1.340000057220458984e+01,2.155807800292968750e+02
1.344000053405761719e+01,2.149930572509765625e+02
1.348000049591064453e+01,2.144046478271484375e+02
1.352000045776367188e+01,2.138080596923828125e+02
1.356000041961669922e+01,2.132109222412109375e+02
1.360000038146972656e+01,2.125440216064453125e+02
1.364000034332275391e+01,2.118078308105468750e+02
1.368000030517578125e+01,2.110707702636718750e+02
1.372000026702880859e+01,2.103333740234375000e+02
1.376000022888183594e+01,2.095954589843750000e+02
1.380000019073486328e+01,2.087906494140625000e+02
1.384000015258789062e+01,2.073302764892578125e+02
1.388000011444091797e+01,2.065302276611328125e+02
1.392000007629394531e+01,2.060530700683593750e+02
1.396000003814697266e+01,2.055765075683593750e+02
1.400000000000000000e+01,2.051467132568359375e+02
1.403999996185302734e+01,2.047636108398437500e+02
1.407999992370605469e+01,2.043798980712890625e+02
1.411999988555908203e+01,2.040041656494140625e+02
1.415999984741210938e+01,2.036278686523437500e+02
1.419999980926513672e+01,2.032460632324218750e+02
1.423999977111816406e+01,2.028587951660156250e+02
1.427999973297119141e+01,2.024709777832031250e+02
1.431999969482421875e+01,2.020724487304687500e+02
1.435999965667724609e+01,2.016735839843750000e+02
1.439999961853027344e+01,2.012497863769531250e+02
1.444000053405761719e+01,2.007951660156250000e+02
1.448000049591064453e+01,2.003405609130859375e+02
1.452000045776367188e+01,1.998752593994140625e+02
1.456000041961669922e+01,1.994098510742187500e+02
1.460000038146972656e+01,1.989371948242187500e+02
1.464000034332275391e+01,1.984572143554687500e+02
1.468000030517578125e+01,1.979772491455078125e+02
1.472000026702880859e+01,1.975181579589843750e+02
1.476000022888183594e+01,1.970588989257812500e+02
1.480000019073486328e+01,1.965954742431640625e+02
1.484000015258789062e+01,1.961278533935546875e+02
1.488000011444091797e+01,1.956597442626953125e+02
1.492000007629394531e+01,1.951855163574218750e+02
1.496000003814697266e+01,1.947113037109375000e+02
1.500000000000000000e+01,1.942350158691406250e+02
1.503999996185302734e+01,1.937567443847656250e+02
1.507999992370605469e+01,1.932784423828125000e+02
1.511999988555908203e+01,1.927976989746093750e+02
1.515999984741210938e+01,1.923169403076171875e+02
1.519999980926513672e+01,1.918308563232421875e+02
1.523999977111816406e+01,1.913393859863281250e+02
1.527999973297119141e+01,1.908478851318359375e+02
1.531999969482421875e+01,1.903525390625000000e+02
1.535999965667724609e+01,1.898571624755859375e+02
1.539999961853027344e+01,1.893626098632812500e+02
1.544000053405761719e+01,1.888688964843750000e+02
1.548000049591064453e+01,1.883752136230468750e+02
1.552000045776367188e+01,1.878843383789062500e+02
1.556000041961669922e+01,1.873933258056640625e+02
1.560000038146972656e+01,1.869133758544921875e+02
1.564000034332275391e+01,1.864443664550781250e+02
1.568000030517578125e+01,1.859752655029296875e+02
1.572000026702880859e+01,1.854911041259765625e+02
1.576000022888183594e+01,1.850067291259765625e+02
1.580000019073486328e+01,1.845132904052734375e+02
1.584000015258789062e+01,1.840107116699218750e+02
1.588000011444091797e+01,1.835046997070312500e+02
1.592000007629394531e+01,1.829998931884765625e+02
1.596000003814697266e+01,1.824951477050781250e+02
1.600000000000000000e+01,1.819937133789062500e+02
1.603999900817871094e+01,1.814955139160156250e+02
1.607999992370605469e+01,1.809972839355468750e+02
1.611999893188476562e+01,1.805095672607421875e+02
1.615999984741210938e+01,1.800216827392578125e+02
1.619999885559082031e+01,1.795338134765625000e+02
1.623999977111816406e+01,1.790457000732421875e+02
1.627999877929687500e+01,1.785576019287109375e+02
1.631999969482421875e+01,1.780659790039062500e+02
1.635999870300292969e+01,1.775742645263671875e+02
1.639999961853027344e+01,1.770825347900390625e+02
1.643999862670898438e+01,1.765908508300781250e+02
1.647999954223632812e+01,1.760989685058593750e+02
1.652000045776367188e+01,1.755916900634765625e+02
1.655999946594238281e+01,1.750845184326171875e+02
1.660000038146972656e+01,1.745773925781250000e+02
1.663999938964843750e+01,1.740703430175781250e+02
1.668000030517578125e+01,1.735632781982421875e+02
1.671999931335449219e+01,1.731019439697265625e+02
1.676000022888183594e+01,1.726404113769531250e+02
1.679999923706054688e+01,1.721785583496093750e+02
1.684000015258789062e+01,1.717165374755859375e+02
1.687999916076660156e+01,1.712543640136718750e+02
1.692000007629394531e+01,1.707771301269531250e+02
1.695999908447265625e+01,1.702998046875000000e+02
1.700000000000000000e+01,1.698367004394531250e+02
1.703999900817871094e+01,1.693875122070312500e+02
1.707999992370605469e+01,1.689381408691406250e+02
1.711999893188476562e+01,1.684786224365234375e+02
1.715999984741210938e+01,1.680190124511718750e+02
1.719999885559082031e+01,1.675594177246093750e+02
1.723999977111816406e+01,1.670998229980468750e+02
1.727999877929687500e+01,1.666619415283203125e+02
1.731999969482421875e+01,1.662349548339843750e+02
1.735999870300292969e+01,1.658079376220703125e+02
1.739999961853027344e+01,1.653806457519531250e+02
1.743999862670898438e+01,1.649525451660156250e+02
1.747999954223632812e+01,1.645224609375000000e+02
