# Start of Energy Bin (keV), Effective Area (cm^2)
1.600000023841857910e+00,9.561993479728698730e-01
1.639999985694885254e+00,1.300223708152770996e+00
1.680000066757202148e+00,1.763159632682800293e+00
1.720000028610229492e+00,2.384859800338745117e+00
1.759999990463256836e+00,3.174400568008422852e+00
1.799999952316284180e+00,3.953584909439086914e+00
1.840000033378601074e+00,2.437521219253540039e+00
1.879999995231628418e+00,3.050531625747680664e+00
1.920000076293945312e+00,3.902633428573608398e+00
1.960000038146972656e+00,4.843610286712646484e+00
2.000000000000000000e+00,5.908097743988037109e+00
2.039999961853027344e+00,7.143243312835693359e+00
2.079999923706054688e+00,8.627739906311035156e+00
2.119999885559082031e+00,8.159202575683593750e+00
2.160000085830688477e+00,9.372869491577148438e+00
2.200000047683715820e+00,9.858654022216796875e+00
2.240000009536743164e+00,1.119585990905761719e+01
2.279999971389770508e+00,1.275171470642089844e+01
2.319999933242797852e+00,1.466051387786865234e+01
2.360000133514404297e+00,1.650757980346679688e+01
2.400000095367431641e+00,1.827137565612792969e+01
2.440000057220458984e+00,2.024966430664062500e+01
2.480000019073486328e+00,2.253355789184570312e+01
2.519999980926513672e+00,2.523901557922363281e+01
2.559999942779541016e+00,2.818884658813476562e+01
2.599999904632568359e+00,3.083630752563476562e+01
2.639999866485595703e+00,3.161988830566406250e+01
2.679999828338623047e+00,3.427210998535156250e+01
2.720000028610229492e+00,3.711664199829101562e+01
2.759999990463256836e+00,4.017755889892578125e+01
2.799999952316284180e+00,4.346032714843750000e+01
2.840000152587890625e+00,4.683821487426757812e+01
2.880000114440917969e+00,4.973358154296875000e+01
2.920000076293945312e+00,5.275486755371093750e+01
2.960000038146972656e+00,5.594267272949218750e+01
3.000000000000000000e+00,5.933117294311523438e+01
3.039999961853027344e+00,6.145036315917968750e+01
3.079999923706054688e+00,6.487937927246093750e+01
3.119999885559082031e+00,6.842167663574218750e+01
3.159999847412109375e+00,7.134516906738281250e+01
3.199999809265136719e+00,7.435633087158203125e+01
3.240000009536743164e+00,7.745930480957031250e+01
3.279999971389770508e+00,7.977690124511718750e+01
3.319999933242797852e+00,8.398950195312500000e+01
3.360000133514404297e+00,8.839576721191406250e+01
3.400000095367431641e+00,9.298559570312500000e+01
3.440000057220458984e+00,9.642666625976562500e+01
3.480000019073486328e+00,9.886824798583984375e+01
3.519999980926513672e+00,9.465985107421875000e+01
3.559999942779541016e+00,9.709595489501953125e+01
3.599999904632568359e+00,9.963105773925781250e+01
3.639999866485595703e+00,1.021994552612304688e+02
3.679999828338623047e+00,1.048043746948242188e+02
3.719999790191650391e+00,1.039733428955078125e+02
3.759999752044677734e+00,1.066414871215820312e+02
3.800000190734863281e+00,1.089610366821289062e+02
3.840000152587890625e+00,1.110431671142578125e+02
3.880000114440917969e+00,1.131284713745117188e+02
3.920000076293945312e+00,1.157667922973632812e+02
3.960000038146972656e+00,1.186110839843750000e+02
4.000000000000000000e+00,1.196355209350585938e+02
4.039999961853027344e+00,1.224068756103515625e+02
4.079999923706054688e+00,1.252080307006835938e+02
4.119999885559082031e+00,1.280261230468750000e+02
4.159999847412109375e+00,1.308420257568359375e+02
4.199999809265136719e+00,1.332482452392578125e+02
4.239999771118164062e+00,1.356655273437500000e+02
4.279999732971191406e+00,1.381009979248046875e+02
4.320000171661376953e+00,1.343505096435546875e+02
4.360000133514404297e+00,1.346131439208984375e+02
4.400000095367431641e+00,1.367157897949218750e+02
4.440000057220458984e+00,1.388305511474609375e+02
4.480000019073486328e+00,1.409708709716796875e+02
4.519999980926513672e+00,1.431168670654296875e+02
4.559999942779541016e+00,1.452567138671875000e+02
4.599999904632568359e+00,1.428679046630859375e+02
4.639999866485595703e+00,1.448321228027343750e+02
4.679999828338623047e+00,1.465805206298828125e+02
4.719999790191650391e+00,1.483593139648437500e+02
4.759999752044677734e+00,1.501380615234375000e+02
4.799999713897705078e+00,1.519178771972656250e+02
4.840000152587890625e+00,1.536881256103515625e+02
4.880000114440917969e+00,1.554542694091796875e+02
4.920000076293945312e+00,1.550997924804687500e+02
4.960000038146972656e+00,1.568314056396484375e+02
5.000000000000000000e+00,1.585197143554687500e+02
5.039999961853027344e+00,1.603046569824218750e+02
5.079999923706054688e+00,1.619819946289062500e+02
5.119999885559082031e+00,1.636743469238281250e+02
5.159999847412109375e+00,1.653616790771484375e+02
5.199999809265136719e+00,1.670417175292968750e+02
5.239999771118164062e+00,1.687161102294921875e+02
5.279999732971191406e+00,1.703899841308593750e+02
5.320000171661376953e+00,1.720404052734375000e+02
5.360000133514404297e+00,1.736895751953125000e+02
5.400000095367431641e+00,1.753341827392578125e+02
5.440000057220458984e+00,1.769721527099609375e+02
5.480000019073486328e+00,1.786072692871093750e+02
5.519999980926513672e+00,1.802739257812500000e+02
5.559999942779541016e+00,1.818197326660156250e+02
5.599999904632568359e+00,1.832378997802734375e+02
5.639999866485595703e+00,1.846497192382812500e+02
5.679999828338623047e+00,1.860570983886718750e+02
5.719999790191650391e+00,1.874457397460937500e+02
5.759999752044677734e+00,1.888301239013671875e+02
5.799999713897705078e+00,1.901950225830078125e+02
5.839999675750732422e+00,1.915413665771484375e+02
5.879999637603759766e+00,1.928830108642578125e+02
5.919999599456787109e+00,1.942060546875000000e+02
5.960000038146972656e+00,1.955241241455078125e+02
6.000000000000000000e+00,1.967451477050781250e+02
6.039999961853027344e+00,1.978671875000000000e+02
6.079999923706054688e+00,1.989828948974609375e+02
6.119999885559082031e+00,2.000019683837890625e+02
6.159999847412109375e+00,2.009532012939453125e+02
6.199999809265136719e+00,2.019049072265625000e+02
6.239999771118164062e+00,2.028578643798828125e+02
6.279999732971191406e+00,2.038045806884765625e+02
6.319999694824218750e+00,2.047723083496093750e+02
6.359999656677246094e+00,2.057339019775390625e+02
6.399999618530273438e+00,2.066850738525390625e+02
6.439999580383300781e+00,2.076261444091796875e+02
6.480000019073486328e+00,2.085615844726562500e+02
6.519999980926513672e+00,2.094561462402343750e+02
6.559999942779541016e+00,2.103450622558593750e+02
6.599999904632568359e+00,2.112241516113281250e+02
6.639999866485595703e+00,2.120935058593750000e+02
6.679999828338623047e+00,2.129574127197265625e+02
6.719999790191650391e+00,2.137850799560546875e+02
6.759999752044677734e+00,2.145199279785156250e+02
6.799999713897705078e+00,2.152405700683593750e+02
6.839999675750732422e+00,2.159473571777343750e+02
6.879999637603759766e+00,2.166487121582031250e+02
6.919999599456787109e+00,2.173718872070312500e+02
6.959999561309814453e+00,2.180900878906250000e+02
7.000000000000000000e+00,2.187533874511718750e+02
7.039999961853027344e+00,2.193611450195312500e+02
7.079999923706054688e+00,2.199649200439453125e+02
7.119999885559082031e+00,2.193663177490234375e+02
7.159999847412109375e+00,2.199192504882812500e+02
7.199999809265136719e+00,2.204841461181640625e+02
7.239999771118164062e+00,2.210617523193359375e+02
7.279999732971191406e+00,2.216346435546875000e+02
7.319999694824218750e+00,2.222279510498046875e+02
7.359999656677246094e+00,2.228165588378906250e+02
7.399999618530273438e+00,2.233941497802734375e+02
7.439999580383300781e+00,2.239608306884765625e+02
7.479999542236328125e+00,2.245234069824218750e+02
7.519999980926513672e+00,2.250777130126953125e+02
7.559999942779541016e+00,2.256278686523437500e+02
7.599999904632568359e+00,2.261668395996093750e+02
7.639999866485595703e+00,2.266943817138671875e+02
7.679999828338623047e+00,2.272182312011718750e+02
7.719999790191650391e+00,2.277245483398437500e+02
7.759999752044677734e+00,2.282274780273437500e+02
7.799999713897705078e+00,2.287198486328125000e+02
7.839999675750732422e+00,2.292010650634765625e+02
7.879999637603759766e+00,2.296785888671875000e+02
7.919999599456787109e+00,2.301570281982421875e+02
7.959999561309814453e+00,2.306318511962890625e+02
7.999999523162841797e+00,2.310804901123046875e+02
8.039999961853027344e+00,2.315029449462890625e+02
8.079999923706054688e+00,2.319221038818359375e+02
8.119999885559082031e+00,2.323380584716796875e+02
8.159999847412109375e+00,2.326912841796875000e+02
8.199999809265136719e+00,2.330275573730468750e+02
8.239999771118164062e+00,2.333607025146484375e+02
8.279999732971191406e+00,2.337317199707031250e+02
8.319999694824218750e+00,2.340992126464843750e+02
8.359999656677246094e+00,2.344638061523437500e+02
8.399999618530273438e+00,2.348050231933593750e+02
8.439999580383300781e+00,2.351234741210937500e+02
8.479999542236328125e+00,2.354389648437500000e+02
8.520000457763671875e+00,2.357601318359375000e+02
8.560000419616699219e+00,2.360783081054687500e+02
8.600000381469726562e+00,2.363609924316406250e+02
8.640000343322753906e+00,2.366078948974609375e+02
8.680000305175781250e+00,2.368518676757812500e+02
8.720000267028808594e+00,2.370839080810546875e+02
8.760000228881835938e+00,2.373131866455078125e+02
8.800000190734863281e+00,2.374942474365234375e+02
8.840000152587890625e+00,2.376270141601562500e+02
8.880000114440917969e+00,2.377567138671875000e+02
8.920000076293945312e+00,2.378938293457031250e+02
8.960000038146972656e+00,2.379949493408203125e+02
9.000000000000000000e+00,2.380228118896484375e+02
9.039999961853027344e+00,2.379957733154296875e+02
9.079999923706054688e+00,2.379656524658203125e+02
9.119999885559082031e+00,2.379881134033203125e+02
9.159999847412109375e+00,2.381380615234375000e+02
9.199999809265136719e+00,2.382369537353515625e+02
9.239999771118164062e+00,2.382845916748046875e+02
9.279999732971191406e+00,2.383290863037109375e+02
9.319999694824218750e+00,2.383433074951171875e+02
9.359999656677246094e+00,2.383543853759765625e+02
9.399999618530273438e+00,2.383100891113281250e+02
9.439999580383300781e+00,2.382102661132812500e+02
9.479999542236328125e+00,2.381072540283203125e+02
9.519999504089355469e+00,2.380140991210937500e+02
9.560000419616699219e+00,2.379179687500000000e+02
9.600000381469726562e+00,2.376259460449218750e+02
9.640000343322753906e+00,2.371971435546875000e+02
9.680000305175781250e+00,2.369428863525390625e+02
9.720000267028808594e+00,2.367039794921875000e+02
9.760000228881835938e+00,2.364617309570312500e+02
9.800000190734863281e+00,2.358702697753906250e+02
9.840000152587890625e+00,2.349225769042968750e+02
9.880000114440917969e+00,2.339501495361328125e+02
9.920000076293945312e+00,2.329876861572265625e+02
9.960000038146972656e+00,2.324714965820312500e+02
1.000000000000000000e+01,2.297799987792968750e+02
1.003999996185302734e+01,2.245804595947265625e+02
1.007999992370605469e+01,2.193587036132812500e+02
1.011999988555908203e+01,2.141098327636718750e+02
1.015999984741210938e+01,2.088405456542968750e+02
1.019999980926513672e+01,2.030187683105468750e+02
1.023999977111816406e+01,2.033945770263671875e+02
1.027999973297119141e+01,2.037624664306640625e+02
1.032000064849853516e+01,2.041058349609375000e+02
1.036000061035156250e+01,2.044415283203125000e+02
1.040000057220458984e+01,2.055331420898437500e+02
1.044000053405761719e+01,2.070179443359375000e+02
1.048000049591064453e+01,2.073754272460937500e+02
1.052000045776367188e+01,2.077502899169921875e+02
1.056000041961669922e+01,2.081200103759765625e+02
1.060000038146972656e+01,2.079979248046875000e+02
1.064000034332275391e+01,2.073871917724609375e+02
1.068000030517578125e+01,2.067749633789062500e+02
1.072000026702880859e+01,2.061231689453125000e+02
1.076000022888183594e+01,2.054702911376953125e+02
1.080000019073486328e+01,2.047233734130859375e+02
1.084000015258789062e+01,2.038694915771484375e+02
1.088000011444091797e+01,2.030092010498046875e+02
1.092000007629394531e+01,2.021694183349609375e+02
1.096000003814697266e+01,2.013297271728515625e+02
1.100000000000000000e+01,2.004026184082031250e+02
1.103999996185302734e+01,1.993885650634765625e+02
1.107999992370605469e+01,1.983757324218750000e+02
1.111999988555908203e+01,1.983537597656250000e+02
1.115999984741210938e+01,1.983295745849609375e+02
1.119999980926513672e+01,1.978886108398437500e+02
1.123999977111816406e+01,1.970290832519531250e+02
1.127999973297119141e+01,1.961647491455078125e+02
1.131999969482421875e+01,1.952741088867187500e+02
1.136000061035156250e+01,1.943790740966796875e+02
1.140000057220458984e+01,1.925156555175781250e+02
1.144000053405761719e+01,1.896790161132812500e+02
1.148000049591064453e+01,1.868310852050781250e+02
1.152000045776367188e+01,1.838101348876953125e+02
1.156000041961669922e+01,1.765174560546875000e+02
1.160000038146972656e+01,1.742706298828125000e+02
1.164000034332275391e+01,1.736766052246093750e+02
1.168000030517578125e+01,1.730770568847656250e+02
1.172000026702880859e+01,1.724697875976562500e+02
1.176000022888183594e+01,1.718550567626953125e+02
1.180000019073486328e+01,1.711596221923828125e+02
1.184000015258789062e+01,1.703870086669921875e+02
1.188000011444091797e+01,1.696137695312500000e+02
1.192000007629394531e+01,1.688208618164062500e+02
1.196000003814697266e+01,1.680222015380859375e+02
1.200000000000000000e+01,1.671009521484375000e+02
1.203999996185302734e+01,1.660576171875000000e+02
1.207999992370605469e+01,1.653273773193359375e+02
1.211999988555908203e+01,1.655057373046875000e+02
1.215999984741210938e+01,1.656833648681640625e+02
1.219999980926513672e+01,1.658044128417968750e+02
1.223999977111816406e+01,1.658686828613281250e+02
1.227999973297119141e+01,1.659322662353515625e+02
1.231999969482421875e+01,1.660181884765625000e+02
1.236000061035156250e+01,1.661035461425781250e+02
1.240000057220458984e+01,1.660962371826171875e+02
1.244000053405761719e+01,1.659966430664062500e+02
1.248000049591064453e+01,1.658962249755859375e+02
1.252000045776367188e+01,1.657745513916015625e+02
1.256000041961669922e+01,1.656523742675781250e+02
1.260000038146972656e+01,1.654736480712890625e+02
1.264000034332275391e+01,1.652385559082031250e+02
1.268000030517578125e+01,1.650029449462890625e+02
1.272000026702880859e+01,1.647699737548828125e+02
1.276000022888183594e+01,1.645363616943359375e+02
1.280000019073486328e+01,1.642640228271484375e+02
1.284000015258789062e+01,1.639528808593750000e+02
1.288000011444091797e+01,1.636417846679687500e+02
1.292000007629394531e+01,1.633181457519531250e+02
1.296000003814697266e+01,1.629941101074218750e+02
1.300000000000000000e+01,1.624978179931640625e+02
1.303999996185302734e+01,1.618297576904296875e+02
1.307999992370605469e+01,1.611622161865234375e+02
1.311999988555908203e+01,1.604944305419921875e+02
1.315999984741210938e+01,1.598251190185546875e+02
1.319999980926513672e+01,1.590561370849609375e+02
1.323999977111816406e+01,1.581882629394531250e+02
1.327999973297119141e+01,1.572012023925781250e+02
1.331999969482421875e+01,1.550655975341796875e+02
1.335999965667724609e+01,1.541636657714843750e+02
1.340000057220458984e+01,1.535338439941406250e+02
1.344000053405761719e+01,1.531249694824218750e+02
1.348000049591064453e+01,1.527155303955078125e+02
1.352000045776367188e+01,1.522859497070312500e+02
1.356000041961669922e+01,1.518559875488281250e+02
1.360000038146972656e+01,1.513737487792968750e+02
1.364000034332275391e+01,1.508396759033203125e+02
1.368000030517578125e+01,1.503050079345703125e+02
1.372000026702880859e+01,1.497703094482421875e+02
1.376000022888183594e+01,1.492352600097656250e+02
1.380000019073486328e+01,1.486538543701171875e+02
1.384000015258789062e+01,1.476069793701171875e+02
1.388000011444091797e+01,1.470351409912109375e+02
1.392000007629394531e+01,1.466948089599609375e+02
1.396000003814697266e+01,1.463548583984375000e+02
1.400000000000000000e+01,1.460471954345703125e+02
1.403999996185302734e+01,1.457717742919921875e+02
1.407999992370605469e+01,1.454958953857421875e+02
1.411999988555908203e+01,1.452238769531250000e+02
1.415999984741210938e+01,1.449515075683593750e+02
1.419999980926513672e+01,1.446748962402343750e+02
1.423999977111816406e+01,1.443940582275390625e+02
1.427999973297119141e+01,1.441128997802734375e+02
1.431999969482421875e+01,1.438310241699218750e+02
1.435999965667724609e+01,1.435488739013671875e+02
1.439999961853027344e+01,1.432493286132812500e+02
1.444000053405761719e+01,1.429281311035156250e+02
1.448000049591064453e+01,1.426069335937500000e+02
1.452000045776367188e+01,1.422765808105468750e+02
1.456000041961669922e+01,1.419461059570312500e+02
1.460000038146972656e+01,1.416109008789062500e+02
1.464000034332275391e+01,1.412709350585937500e+02
1.468000030517578125e+01,1.409309539794921875e+02
1.472000026702880859e+01,1.405994262695312500e+02
1.476000022888183594e+01,1.402677764892578125e+02
1.480000019073486328e+01,1.399332580566406250e+02
1.484000015258789062e+01,1.395957946777343750e+02
1.488000011444091797e+01,1.392579956054687500e+02
1.492000007629394531e+01,1.389268188476562500e+02
1.496000003814697266e+01,1.385955963134765625e+02
1.500000000000000000e+01,1.382631072998046875e+02
1.503999996185302734e+01,1.379294281005859375e+02
1.507999992370605469e+01,1.375956726074218750e+02
1.511999988555908203e+01,1.372562408447265625e+02
1.515999984741210938e+01,1.369167633056640625e+02
1.519999980926513672e+01,1.365733032226562500e+02
1.523999977111816406e+01,1.362257995605468750e+02
1.527999973297119141e+01,1.358782806396484375e+02
1.531999969482421875e+01,1.355248718261718750e+02
1.535999965667724609e+01,1.351714477539062500e+02
1.539999961853027344e+01,1.348188323974609375e+02
1.544000053405761719e+01,1.344669952392578125e+02
1.548000049591064453e+01,1.341151885986328125e+02
1.552000045776367188e+01,1.337670288085937500e+02
1.556000041961669922e+01,1.334187622070312500e+02
1.560000038146972656e+01,1.330789031982421875e+02
1.564000034332275391e+01,1.327473754882812500e+02
1.568000030517578125e+01,1.324157562255859375e+02
1.572000026702880859e+01,1.320593872070312500e+02
1.576000022888183594e+01,1.317027587890625000e+02
1.580000019073486328e+01,1.313401641845703125e+02
1.584000015258789062e+01,1.309715270996093750e+02
1.588000011444091797e+01,1.306004791259765625e+02
1.592000007629394531e+01,1.302352142333984375e+02
1.596000003814697266e+01,1.298700103759765625e+02
1.600000000000000000e+01,1.295076141357421875e+02
1.603999900817871094e+01,1.291479797363281250e+02
1.607999992370605469e+01,1.287883300781250000e+02
1.611999893188476562e+01,1.284323272705078125e+02
1.615999984741210938e+01,1.280762786865234375e+02
1.619999885559082031e+01,1.277202606201171875e+02
1.623999977111816406e+01,1.273641281127929688e+02
1.627999877929687500e+01,1.270080566406250000e+02
1.631999969482421875e+01,1.266572189331054688e+02
1.635999870300292969e+01,1.263063354492187500e+02
1.639999961853027344e+01,1.259554290771484375e+02
1.643999862670898438e+01,1.256045532226562500e+02
1.647999954223632812e+01,1.252535552978515625e+02
1.652000045776367188e+01,1.248850097656250000e+02
1.655999946594238281e+01,1.245166015625000000e+02
1.660000038146972656e+01,1.241482543945312500e+02
1.663999938964843750e+01,1.237799911499023438e+02
1.668000030517578125e+01,1.234117736816406250e+02
1.671999931335449219e+01,1.230812835693359375e+02
1.676000022888183594e+01,1.227506561279296875e+02
1.679999923706054688e+01,1.224198074340820312e+02
1.684000015258789062e+01,1.220888519287109375e+02
1.687999916076660156e+01,1.217577819824218750e+02
1.692000007629394531e+01,1.214089660644531250e+02
1.695999908447265625e+01,1.210601196289062500e+02
1.700000000000000000e+01,1.207205657958984375e+02
1.703999900817871094e+01,1.203901062011718750e+02
1.707999992370605469e+01,1.200596008300781250e+02
1.711999893188476562e+01,1.197233047485351562e+02
1.715999984741210938e+01,1.193869781494140625e+02
1.719999885559082031e+01,1.190507125854492188e+02
1.723999977111816406e+01,1.187145080566406250e+02
1.727999877929687500e+01,1.183935394287109375e+02
1.731999969482421875e+01,1.180849685668945312e+02
1.735999870300292969e+01,1.177763900756835938e+02
1.739999961853027344e+01,1.174676284790039062e+02
1.743999862670898438e+01,1.171583328247070312e+02
1.747999954223632812e+01,1.168476333618164062e+02
