# Start of Energy Bin (keV), Effective Area (cm^2)
1.600000023841857910e+00,7.702366709709167480e-01
1.639999985694885254e+00,1.048649072647094727e+00
1.680000066757202148e+00,1.423777818679809570e+00
1.720000028610229492e+00,1.928209900856018066e+00
1.759999990463256836e+00,2.569781780242919922e+00
1.799999952316284180e+00,3.206298112869262695e+00
1.840000033378601074e+00,1.981001019477844238e+00
1.879999995231628418e+00,2.480819702148437500e+00
1.920000076293945312e+00,3.171263217926025391e+00
1.960000038146972656e+00,3.932777881622314453e+00
2.000000000000000000e+00,4.792340278625488281e+00
2.039999961853027344e+00,5.787353992462158203e+00
2.079999923706054688e+00,6.981812953948974609e+00
2.119999885559082031e+00,6.598526954650878906e+00
2.160000085830688477e+00,7.577968120574951172e+00
2.200000047683715820e+00,7.969261646270751953e+00
2.240000009536743164e+00,9.049380302429199219e+00
2.279999971389770508e+00,1.030579090118408203e+01
2.319999933242797852e+00,1.184481334686279297e+01
2.360000133514404297e+00,1.333303070068359375e+01
2.400000095367431641e+00,1.475347423553466797e+01
2.440000057220458984e+00,1.634667968750000000e+01
2.480000019073486328e+00,1.818570709228515625e+01
2.519999980926513672e+00,2.036525917053222656e+01
2.559999942779541016e+00,2.274218368530273438e+01
2.599999904632568359e+00,2.487624931335449219e+01
2.639999866485595703e+00,2.550656890869140625e+01
2.679999828338623047e+00,2.764601516723632812e+01
2.720000028610229492e+00,2.993955230712890625e+01
2.759999990463256836e+00,3.240745925903320312e+01
2.799999952316284180e+00,3.505439376831054688e+01
2.840000152587890625e+00,3.777685165405273438e+01
2.880000114440917969e+00,4.010925292968750000e+01
2.920000076293945312e+00,4.254470062255859375e+01
2.960000038146972656e+00,4.511430740356445312e+01
3.000000000000000000e+00,4.791397094726562500e+01
3.039999961853027344e+00,4.976416015625000000e+01
3.079999923706054688e+00,5.268778228759765625e+01
3.119999885559082031e+00,5.571985626220703125e+01
3.159999847412109375e+00,5.826242065429687500e+01
3.199999809265136719e+00,6.088974761962890625e+01
3.240000009536743164e+00,6.360578918457031250e+01
3.279999971389770508e+00,6.568982696533203125e+01
3.319999933242797852e+00,6.883575439453125000e+01
3.360000133514404297e+00,7.210932159423828125e+01
3.400000095367431641e+00,7.550663757324218750e+01
3.440000057220458984e+00,7.822200012207031250e+01
3.480000019073486328e+00,8.021598052978515625e+01
3.519999980926513672e+00,7.679932403564453125e+01
3.559999942779541016e+00,7.877356719970703125e+01
3.599999904632568359e+00,8.082807159423828125e+01
3.639999866485595703e+00,8.290953826904296875e+01
3.679999828338623047e+00,8.502057647705078125e+01
3.719999790191650391e+00,8.435569763183593750e+01
3.759999752044677734e+00,8.653000640869140625e+01
3.800000190734863281e+00,8.842205047607421875e+01
3.840000152587890625e+00,9.012200927734375000e+01
3.880000114440917969e+00,9.182500457763671875e+01
3.920000076293945312e+00,9.395883941650390625e+01
3.960000038146972656e+00,9.625697326660156250e+01
4.000000000000000000e+00,9.707803344726562500e+01
4.039999961853027344e+00,9.931642150878906250e+01
4.079999923706054688e+00,1.015785064697265625e+02
4.119999885559082031e+00,1.038648071289062500e+02
4.159999847412109375e+00,1.061493606567382812e+02
4.199999809265136719e+00,1.081016464233398438e+02
4.239999771118164062e+00,1.100630645751953125e+02
4.279999732971191406e+00,1.120392150878906250e+02
4.320000171661376953e+00,1.089985046386718750e+02
4.360000133514404297e+00,1.092112274169921875e+02
4.400000095367431641e+00,1.109160537719726562e+02
4.440000057220458984e+00,1.126307373046875000e+02
4.480000019073486328e+00,1.143661346435546875e+02
4.519999980926513672e+00,1.161135787963867188e+02
4.559999942779541016e+00,1.178562011718750000e+02
4.599999904632568359e+00,1.159245376586914062e+02
4.639999866485595703e+00,1.175250473022460938e+02
4.679999828338623047e+00,1.189506225585937500e+02
4.719999790191650391e+00,1.203742828369140625e+02
4.759999752044677734e+00,1.217974243164062500e+02
4.799999713897705078e+00,1.232210693359375000e+02
4.840000152587890625e+00,1.246366271972656250e+02
4.880000114440917969e+00,1.260483627319335938e+02
4.920000076293945312e+00,1.257664489746093750e+02
4.960000038146972656e+00,1.271761322021484375e+02
5.000000000000000000e+00,1.285509185791015625e+02
5.039999961853027344e+00,1.300374298095703125e+02
5.079999923706054688e+00,1.314590759277343750e+02
5.119999885559082031e+00,1.328761596679687500e+02
5.159999847412109375e+00,1.342899932861328125e+02
5.199999809265136719e+00,1.356988525390625000e+02
5.239999771118164062e+00,1.371040649414062500e+02
5.279999732971191406e+00,1.385096435546875000e+02
5.320000171661376953e+00,1.399149169921875000e+02
5.360000133514404297e+00,1.413203125000000000e+02
5.400000095367431641e+00,1.427232971191406250e+02
5.440000057220458984e+00,1.441221618652343750e+02
5.480000019073486328e+00,1.455198669433593750e+02
5.519999980926513672e+00,1.469165039062500000e+02
5.559999942779541016e+00,1.482152557373046875e+02
5.599999904632568359e+00,1.494106445312500000e+02
5.639999866485595703e+00,1.506015930175781250e+02
5.679999828338623047e+00,1.517893981933593750e+02
5.719999790191650391e+00,1.529750366210937500e+02
5.759999752044677734e+00,1.541578826904296875e+02
5.799999713897705078e+00,1.553258666992187500e+02
5.839999675750732422e+00,1.564797210693359375e+02
5.879999637603759766e+00,1.576304626464843750e+02
5.919999599456787109e+00,1.587778625488281250e+02
5.960000038146972656e+00,1.599219970703125000e+02
6.000000000000000000e+00,1.609678344726562500e+02
6.039999961853027344e+00,1.619133911132812500e+02
6.079999923706054688e+00,1.628540802001953125e+02
6.119999885559082031e+00,1.637158813476562500e+02
6.159999847412109375e+00,1.645224304199218750e+02
6.199999809265136719e+00,1.653296966552734375e+02
6.239999771118164062e+00,1.661383056640625000e+02
6.279999732971191406e+00,1.669420776367187500e+02
6.319999694824218750e+00,1.677410278320312500e+02
6.359999656677246094e+00,1.685349731445312500e+02
6.399999618530273438e+00,1.693207855224609375e+02
6.439999580383300781e+00,1.700986633300781250e+02
6.480000019073486328e+00,1.708720397949218750e+02
6.519999980926513672e+00,1.716409759521484375e+02
6.559999942779541016e+00,1.724056396484375000e+02
6.599999904632568359e+00,1.731629028320312500e+02
6.639999866485595703e+00,1.739128875732421875e+02
6.679999828338623047e+00,1.746587066650390625e+02
6.719999790191650391e+00,1.753661346435546875e+02
6.759999752044677734e+00,1.759976501464843750e+02
6.799999713897705078e+00,1.766183166503906250e+02
6.839999675750732422e+00,1.772283935546875000e+02
6.879999637603759766e+00,1.778341827392578125e+02
6.919999599456787109e+00,1.784360961914062500e+02
6.959999561309814453e+00,1.790339355468750000e+02
7.000000000000000000e+00,1.795818786621093750e+02
7.039999961853027344e+00,1.800793914794921875e+02
7.079999923706054688e+00,1.805736083984375000e+02
7.119999885559082031e+00,1.801056671142578125e+02
7.159999847412109375e+00,1.805831451416015625e+02
7.199999809265136719e+00,1.810739440917968750e+02
7.239999771118164062e+00,1.815787200927734375e+02
7.279999732971191406e+00,1.820797424316406250e+02
7.319999694824218750e+00,1.825766754150390625e+02
7.359999656677246094e+00,1.830698242187500000e+02
7.399999618530273438e+00,1.835545806884765625e+02
7.439999580383300781e+00,1.840310974121093750e+02
7.479999542236328125e+00,1.845042877197265625e+02
7.519999980926513672e+00,1.849741210937500000e+02
7.559999942779541016e+00,1.854406127929687500e+02
7.599999904632568359e+00,1.858994750976562500e+02
7.639999866485595703e+00,1.863505554199218750e+02
7.679999828338623047e+00,1.867986755371093750e+02
7.719999790191650391e+00,1.872437133789062500e+02
7.759999752044677734e+00,1.876861114501953125e+02
7.799999713897705078e+00,1.881221313476562500e+02
7.839999675750732422e+00,1.885512695312500000e+02
7.879999637603759766e+00,1.889775085449218750e+02
7.919999599456787109e+00,1.894010925292968750e+02
7.959999561309814453e+00,1.898218231201171875e+02
7.999999523162841797e+00,1.902303009033203125e+02
8.039999961853027344e+00,1.906266174316406250e+02
8.079999923706054688e+00,1.910204010009765625e+02
8.119999885559082031e+00,1.914116668701171875e+02
8.159999847412109375e+00,1.917514495849609375e+02
8.199999809265136719e+00,1.920825500488281250e+02
8.239999771118164062e+00,1.924036407470703125e+02
8.279999732971191406e+00,1.927178497314453125e+02
8.319999694824218750e+00,1.930296020507812500e+02
8.359999656677246094e+00,1.933390197753906250e+02
8.399999618530273438e+00,1.936381530761718750e+02
8.439999580383300781e+00,1.939275817871093750e+02
8.479999542236328125e+00,1.942146759033203125e+02
8.520000457763671875e+00,1.944995727539062500e+02
8.560000419616699219e+00,1.947821655273437500e+02
8.600000381469726562e+00,1.950505981445312500e+02
8.640000343322753906e+00,1.953047180175781250e+02
8.680000305175781250e+00,1.955566253662109375e+02
8.720000267028808594e+00,1.958085784912109375e+02
8.760000228881835938e+00,1.960584259033203125e+02
8.800000190734863281e+00,1.962894592285156250e+02
8.840000152587890625e+00,1.965017242431640625e+02
8.880000114440917969e+00,1.967117919921875000e+02
8.920000076293945312e+00,1.969172973632812500e+02
8.960000038146972656e+00,1.970933685302734375e+02
9.000000000000000000e+00,1.972269592285156250e+02
9.039999961853027344e+00,1.973332977294921875e+02
9.079999923706054688e+00,1.974374694824218750e+02
9.119999885559082031e+00,1.975789642333984375e+02
9.159999847412109375e+00,1.978221435546875000e+02
9.199999809265136719e+00,1.980275573730468750e+02
9.239999771118164062e+00,1.981949920654296875e+02
9.279999732971191406e+00,1.983603973388671875e+02
9.319999694824218750e+00,1.985096130371093750e+02
9.359999656677246094e+00,1.986567535400390625e+02
9.399999618530273438e+00,1.987541046142578125e+02
9.439999580383300781e+00,1.988014984130859375e+02
9.479999542236328125e+00,1.988467254638671875e+02
9.519999504089355469e+00,1.988765258789062500e+02
9.560000419616699219e+00,1.989043426513671875e+02
9.600000381469726562e+00,1.987643127441406250e+02
9.640000343322753906e+00,1.985056762695312500e+02
9.680000305175781250e+00,1.983935546875000000e+02
9.720000267028808594e+00,1.983045959472656250e+02
9.760000228881835938e+00,1.982133941650390625e+02
9.800000190734863281e+00,1.978653564453125000e+02
9.840000152587890625e+00,1.972543182373046875e+02
9.880000114440917969e+00,1.966227722167968750e+02
9.920000076293945312e+00,1.959812774658203125e+02
9.960000038146972656e+00,1.957180633544921875e+02
1.000000000000000000e+01,1.936335906982421875e+02
1.003999996185302734e+01,1.894402465820312500e+02
1.007999992370605469e+01,1.852214355468750000e+02
1.011999988555908203e+01,1.809811706542968750e+02
1.015999984741210938e+01,1.767162322998046875e+02
1.019999980926513672e+01,1.719495391845703125e+02
1.023999977111816406e+01,1.721689300537109375e+02
1.027999973297119141e+01,1.723815917968750000e+02
1.032000064849853516e+01,1.725779418945312500e+02
1.036000061035156250e+01,1.727677764892578125e+02
1.040000057220458984e+01,1.735936889648437500e+02
1.044000053405761719e+01,1.747765502929687500e+02
1.048000049591064453e+01,1.750924682617187500e+02
1.052000045776367188e+01,1.754126892089843750e+02
1.056000041961669922e+01,1.757292327880859375e+02
1.060000038146972656e+01,1.756641387939453125e+02
1.064000034332275391e+01,1.752197723388671875e+02
1.068000030517578125e+01,1.747743225097656250e+02
1.072000026702880859e+01,1.743239746093750000e+02
1.076000022888183594e+01,1.738727569580078125e+02
1.080000019073486328e+01,1.733452606201171875e+02
1.084000015258789062e+01,1.727304382324218750e+02
1.088000011444091797e+01,1.721099090576171875e+02
1.092000007629394531e+01,1.714849395751953125e+02
1.096000003814697266e+01,1.708600311279296875e+02
1.100000000000000000e+01,1.701643829345703125e+02
1.103999996185302734e+01,1.693981933593750000e+02
1.107999992370605469e+01,1.686327972412109375e+02
1.111999988555908203e+01,1.686357727050781250e+02
1.115999984741210938e+01,1.686368408203125000e+02
1.119999980926513672e+01,1.683092803955078125e+02
1.123999977111816406e+01,1.676511840820312500e+02
1.127999973297119141e+01,1.669883880615234375e+02
1.131999969482421875e+01,1.663128356933593750e+02
1.136000061035156250e+01,1.656328582763671875e+02
1.140000057220458984e+01,1.641276855468750000e+02
1.144000053405761719e+01,1.617919616699218750e+02
1.148000049591064453e+01,1.594441375732421875e+02
1.152000045776367188e+01,1.569441833496093750e+02
1.156000041961669922e+01,1.507613830566406250e+02
1.160000038146972656e+01,1.488659057617187500e+02
1.164000034332275391e+01,1.483635559082031250e+02
1.168000030517578125e+01,1.478563995361328125e+02
1.172000026702880859e+01,1.473322143554687500e+02
1.176000022888183594e+01,1.468016662597656250e+02
1.180000019073486328e+01,1.462228698730468750e+02
1.184000015258789062e+01,1.455986633300781250e+02
1.188000011444091797e+01,1.449735870361328125e+02
1.192000007629394531e+01,1.443469848632812500e+02
1.196000003814697266e+01,1.437150421142578125e+02
1.200000000000000000e+01,1.429826354980468750e+02
1.203999996185302734e+01,1.421500244140625000e+02
1.207999992370605469e+01,1.415653686523437500e+02
1.211999988555908203e+01,1.417016906738281250e+02
1.215999984741210938e+01,1.418375549316406250e+02
1.219999980926513672e+01,1.419350585937500000e+02
1.223999977111816406e+01,1.419940338134765625e+02
1.227999973297119141e+01,1.420524291992187500e+02
1.231999969482421875e+01,1.421101074218750000e+02
1.236000061035156250e+01,1.421673278808593750e+02
1.240000057220458984e+01,1.421546325683593750e+02
1.244000053405761719e+01,1.420724487304687500e+02
1.248000049591064453e+01,1.419895629882812500e+02
1.252000045776367188e+01,1.419072418212890625e+02
1.256000041961669922e+01,1.418244476318359375e+02
1.260000038146972656e+01,1.416980895996093750e+02
1.264000034332275391e+01,1.415282440185546875e+02
1.268000030517578125e+01,1.413579254150390625e+02
1.272000026702880859e+01,1.411842803955078125e+02
1.276000022888183594e+01,1.410100555419921875e+02
1.280000019073486328e+01,1.408069152832031250e+02
1.284000015258789062e+01,1.405747680664062500e+02
1.288000011444091797e+01,1.403425445556640625e+02
1.292000007629394531e+01,1.401125030517578125e+02
1.296000003814697266e+01,1.398820037841796875e+02
1.300000000000000000e+01,1.395125427246093750e+02
1.303999996185302734e+01,1.390043640136718750e+02
1.307999992370605469e+01,1.384961700439453125e+02
1.311999988555908203e+01,1.379802246093750000e+02
1.315999984741210938e+01,1.374625549316406250e+02
1.319999980926513672e+01,1.368651428222656250e+02
1.323999977111816406e+01,1.361885070800781250e+02
1.327999973297119141e+01,1.353476104736328125e+02
1.331999969482421875e+01,1.335002899169921875e+02
1.335999965667724609e+01,1.326997070312500000e+02
1.340000057220458984e+01,1.321396789550781250e+02
1.344000053405761719e+01,1.317811584472656250e+02
1.348000049591064453e+01,1.314221801757812500e+02
1.352000045776367188e+01,1.310613555908203125e+02
1.356000041961669922e+01,1.307001647949218750e+02
1.360000038146972656e+01,1.303007202148437500e+02
1.364000034332275391e+01,1.298633117675781250e+02
1.368000030517578125e+01,1.294252929687500000e+02
1.372000026702880859e+01,1.289869842529296875e+02
1.376000022888183594e+01,1.285482788085937500e+02
1.380000019073486328e+01,1.280686187744140625e+02
1.384000015258789062e+01,1.271868667602539062e+02
1.388000011444091797e+01,1.267024841308593750e+02
1.392000007629394531e+01,1.264163818359375000e+02
1.396000003814697266e+01,1.261306304931640625e+02
1.400000000000000000e+01,1.258748626708984375e+02
1.403999996185302734e+01,1.256490325927734375e+02
1.407999992370605469e+01,1.254228134155273438e+02
1.411999988555908203e+01,1.251870727539062500e+02
1.415999984741210938e+01,1.249510269165039062e+02
1.419999980926513672e+01,1.247124862670898438e+02
1.423999977111816406e+01,1.244714508056640625e+02
1.427999973297119141e+01,1.242301483154296875e+02
1.431999969482421875e+01,1.239967803955078125e+02
1.435999965667724609e+01,1.237631912231445312e+02
1.439999961853027344e+01,1.235141601562500000e+02
1.444000053405761719e+01,1.232460327148437500e+02
1.448000049591064453e+01,1.229778976440429688e+02
1.452000045776367188e+01,1.227059326171875000e+02
1.456000041961669922e+01,1.224338302612304688e+02
1.460000038146972656e+01,1.221565322875976562e+02
1.464000034332275391e+01,1.218740234375000000e+02
1.468000030517578125e+01,1.215914764404296875e+02
1.472000026702880859e+01,1.213089294433593750e+02
1.476000022888183594e+01,1.210263214111328125e+02
1.480000019073486328e+01,1.207405929565429688e+02
1.484000015258789062e+01,1.204517288208007812e+02
1.488000011444091797e+01,1.201625747680664062e+02
1.492000007629394531e+01,1.198756942749023438e+02
1.496000003814697266e+01,1.195888061523437500e+02
1.500000000000000000e+01,1.192997131347656250e+02
1.503999996185302734e+01,1.190084915161132812e+02
1.507999992370605469e+01,1.187172317504882812e+02
1.511999988555908203e+01,1.184218597412109375e+02
1.515999984741210938e+01,1.181265106201171875e+02
1.519999980926513672e+01,1.178276062011718750e+02
1.523999977111816406e+01,1.175251007080078125e+02
1.527999973297119141e+01,1.172226257324218750e+02
1.531999969482421875e+01,1.169217987060546875e+02
1.535999965667724609e+01,1.166209564208984375e+02
1.539999961853027344e+01,1.163202514648437500e+02
1.544000053405761719e+01,1.160196304321289062e+02
1.548000049591064453e+01,1.157190399169921875e+02
1.552000045776367188e+01,1.154201126098632812e+02
1.556000041961669922e+01,1.151211090087890625e+02
1.560000038146972656e+01,1.148282165527343750e+02
1.564000034332275391e+01,1.145413970947265625e+02
1.568000030517578125e+01,1.142545242309570312e+02
1.572000026702880859e+01,1.139677810668945312e+02
1.576000022888183594e+01,1.136810302734375000e+02
1.580000019073486328e+01,1.133884201049804688e+02
1.584000015258789062e+01,1.130898895263671875e+02
1.588000011444091797e+01,1.127891998291015625e+02
1.592000007629394531e+01,1.124949798583984375e+02
1.596000003814697266e+01,1.122007293701171875e+02
1.600000000000000000e+01,1.119079360961914062e+02
1.603999900817871094e+01,1.116165542602539062e+02
1.607999992370605469e+01,1.113250885009765625e+02
1.611999893188476562e+01,1.110283050537109375e+02
1.615999984741210938e+01,1.107314147949218750e+02
1.619999885559082031e+01,1.104345016479492188e+02
1.623999977111816406e+01,1.101374588012695312e+02
1.627999877929687500e+01,1.098404006958007812e+02
1.631999969482421875e+01,1.095388183593750000e+02
1.635999870300292969e+01,1.092371902465820312e+02
1.639999961853027344e+01,1.089355316162109375e+02
1.643999862670898438e+01,1.086338958740234375e+02
1.647999954223632812e+01,1.083321685791015625e+02
1.652000045776367188e+01,1.080487899780273438e+02
1.655999946594238281e+01,1.077653198242187500e+02
1.660000038146972656e+01,1.074817276000976562e+02
1.663999938964843750e+01,1.071979980468750000e+02
1.668000030517578125e+01,1.069141540527343750e+02
1.671999931335449219e+01,1.066236724853515625e+02
1.676000022888183594e+01,1.063331146240234375e+02
1.679999923706054688e+01,1.060424118041992188e+02
1.684000015258789062e+01,1.057516403198242188e+02
1.687999916076660156e+01,1.054608078002929688e+02
1.692000007629394531e+01,1.051735687255859375e+02
1.695999908447265625e+01,1.048862304687500000e+02
1.700000000000000000e+01,1.046085052490234375e+02
1.703999900817871094e+01,1.043402023315429688e+02
1.707999992370605469e+01,1.040717468261718750e+02
1.711999893188476562e+01,1.037989044189453125e+02
1.715999984741210938e+01,1.035259323120117188e+02
1.719999885559082031e+01,1.032529144287109375e+02
1.723999977111816406e+01,1.029798507690429688e+02
1.727999877929687500e+01,1.027204284667968750e+02
1.731999969482421875e+01,1.024668655395507812e+02
1.735999870300292969e+01,1.022132263183593750e+02
1.739999961853027344e+01,1.019593658447265625e+02
1.743999862670898438e+01,1.017049789428710938e+02
1.747999954223632812e+01,1.014493103027343750e+02
