# Start of Energy Bin (keV), Effective Area (cm^2)
1.600000023841857910e+00,6.084759235382080078e-01
1.639999985694885254e+00,8.266146779060363770e-01
1.680000066757202148e+00,1.119758605957031250e+00
1.720000028610229492e+00,1.512866973876953125e+00
1.759999990463256836e+00,2.011295318603515625e+00
1.799999952316284180e+00,2.499094486236572266e+00
1.840000033378601074e+00,1.536047697067260742e+00
1.879999995231628418e+00,1.922111749649047852e+00
1.920000076293945312e+00,2.465737104415893555e+00
1.960000038146972656e+00,3.068394184112548828e+00
2.000000000000000000e+00,3.754102230072021484e+00
2.039999961853027344e+00,4.554536819458007812e+00
2.079999923706054688e+00,5.519802093505859375e+00
2.119999885559082031e+00,4.778012275695800781e+00
2.160000085830688477e+00,5.509806632995605469e+00
2.200000047683715820e+00,5.625598430633544922e+00
2.240000009536743164e+00,6.389424324035644531e+00
2.279999971389770508e+00,7.278628349304199219e+00
2.319999933242797852e+00,8.371561050415039062e+00
2.360000133514404297e+00,9.426102638244628906e+00
2.400000095367431641e+00,1.043330574035644531e+01
2.440000057220458984e+00,1.157546615600585938e+01
2.480000019073486328e+00,1.291804313659667969e+01
2.519999980926513672e+00,1.455051040649414062e+01
2.559999942779541016e+00,1.633816909790039062e+01
2.599999904632568359e+00,1.796150207519531250e+01
2.639999866485595703e+00,1.810840606689453125e+01
2.679999828338623047e+00,1.971968841552734375e+01
2.720000028610229492e+00,2.145180511474609375e+01
2.759999990463256836e+00,2.332305908203125000e+01
2.799999952316284180e+00,2.533382415771484375e+01
2.840000152587890625e+00,2.741138839721679688e+01
2.880000114440917969e+00,2.921813583374023438e+01
2.920000076293945312e+00,3.110269927978515625e+01
2.960000038146972656e+00,3.309801864624023438e+01
3.000000000000000000e+00,3.516508102416992188e+01
3.039999961853027344e+00,3.608493423461914062e+01
3.079999923706054688e+00,3.803852844238281250e+01
3.119999885559082031e+00,4.005367279052734375e+01
3.159999847412109375e+00,4.169540405273437500e+01
3.199999809265136719e+00,4.337633514404296875e+01
3.240000009536743164e+00,4.509840011596679688e+01
3.279999971389770508e+00,4.615088653564453125e+01
3.319999933242797852e+00,4.912225341796875000e+01
3.360000133514404297e+00,5.225803756713867188e+01
3.400000095367431641e+00,5.554658889770507812e+01
3.440000057220458984e+00,5.784327697753906250e+01
3.480000019073486328e+00,5.943265914916992188e+01
3.519999980926513672e+00,5.747147750854492188e+01
3.559999942779541016e+00,5.905393981933593750e+01
3.599999904632568359e+00,6.069205474853515625e+01
3.639999866485595703e+00,6.235028076171875000e+01
3.679999828338623047e+00,6.403092956542968750e+01
3.719999790191650391e+00,6.386095428466796875e+01
3.759999752044677734e+00,6.558639526367187500e+01
3.800000190734863281e+00,6.710041809082031250e+01
3.840000152587890625e+00,6.846706390380859375e+01
3.880000114440917969e+00,6.983540344238281250e+01
3.920000076293945312e+00,7.154743194580078125e+01
3.960000038146972656e+00,7.339100646972656250e+01
4.000000000000000000e+00,7.423757934570312500e+01
4.039999961853027344e+00,7.603810119628906250e+01
4.079999923706054688e+00,7.785852050781250000e+01
4.119999885559082031e+00,7.970575714111328125e+01
4.159999847412109375e+00,8.155303955078125000e+01
4.199999809265136719e+00,8.314579010009765625e+01
4.239999771118164062e+00,8.474607849121093750e+01
4.279999732971191406e+00,8.635815429687500000e+01
4.320000171661376953e+00,8.453113555908203125e+01
4.360000133514404297e+00,8.490335845947265625e+01
4.400000095367431641e+00,8.629379272460937500e+01
4.440000057220458984e+00,8.769128417968750000e+01
4.480000019073486328e+00,8.910324096679687500e+01
4.519999980926513672e+00,9.054081726074218750e+01
4.559999942779541016e+00,9.197616577148437500e+01
4.599999904632568359e+00,9.085507965087890625e+01
4.639999866485595703e+00,9.216036987304687500e+01
4.679999828338623047e+00,9.334533691406250000e+01
4.719999790191650391e+00,9.451019287109375000e+01
4.759999752044677734e+00,9.567459106445312500e+01
4.799999713897705078e+00,9.683805084228515625e+01
4.840000152587890625e+00,9.799461364746093750e+01
4.880000114440917969e+00,9.914785003662109375e+01
4.920000076293945312e+00,9.913294982910156250e+01
4.960000038146972656e+00,1.002936096191406250e+02
5.000000000000000000e+00,1.014264831542968750e+02
5.039999961853027344e+00,1.025767135620117188e+02
5.079999923706054688e+00,1.036284408569335938e+02
5.119999885559082031e+00,1.046765441894531250e+02
5.159999847412109375e+00,1.057196807861328125e+02
5.199999809265136719e+00,1.067563018798828125e+02
5.239999771118164062e+00,1.077873611450195312e+02
5.279999732971191406e+00,1.088162231445312500e+02
5.320000171661376953e+00,1.098388214111328125e+02
5.360000133514404297e+00,1.108591308593750000e+02
5.400000095367431641e+00,1.118747558593750000e+02
5.440000057220458984e+00,1.128845520019531250e+02
5.480000019073486328e+00,1.138911590576171875e+02
5.519999980926513672e+00,1.148962707519531250e+02
5.559999942779541016e+00,1.158226394653320312e+02
5.599999904632568359e+00,1.166656875610351562e+02
5.639999866485595703e+00,1.175035476684570312e+02
5.679999828338623047e+00,1.183370361328125000e+02
5.719999790191650391e+00,1.191680603027343750e+02
5.759999752044677734e+00,1.199948425292968750e+02
5.799999713897705078e+00,1.208071289062500000e+02
5.839999675750732422e+00,1.216056289672851562e+02
5.879999637603759766e+00,1.223999023437500000e+02
5.919999599456787109e+00,1.231894073486328125e+02
5.960000038146972656e+00,1.239745941162109375e+02
6.000000000000000000e+00,1.247235107421875000e+02
6.039999961853027344e+00,1.254352722167968750e+02
6.079999923706054688e+00,1.261424865722656250e+02
6.119999885559082031e+00,1.267894439697265625e+02
6.159999847412109375e+00,1.273929443359375000e+02
6.199999809265136719e+00,1.279960174560546875e+02
6.239999771118164062e+00,1.285989990234375000e+02
6.279999732971191406e+00,1.291974334716796875e+02
6.319999694824218750e+00,1.297882080078125000e+02
6.359999656677246094e+00,1.303743896484375000e+02
6.399999618530273438e+00,1.309525299072265625e+02
6.439999580383300781e+00,1.315227661132812500e+02
6.480000019073486328e+00,1.320886535644531250e+02
6.519999980926513672e+00,1.326661987304687500e+02
6.559999942779541016e+00,1.332397918701171875e+02
6.599999904632568359e+00,1.338058013916015625e+02
6.639999866485595703e+00,1.343642883300781250e+02
6.679999828338623047e+00,1.349190368652343750e+02
6.719999790191650391e+00,1.354290771484375000e+02
6.759999752044677734e+00,1.358798828125000000e+02
6.799999713897705078e+00,1.363195343017578125e+02
6.839999675750732422e+00,1.367482910156250000e+02
6.879999637603759766e+00,1.371731567382812500e+02
6.919999599456787109e+00,1.375943450927734375e+02
6.959999561309814453e+00,1.380117340087890625e+02
7.000000000000000000e+00,1.383926391601562500e+02
7.039999961853027344e+00,1.387366638183593750e+02
7.079999923706054688e+00,1.390777893066406250e+02
7.119999885559082031e+00,1.386771545410156250e+02
7.159999847412109375e+00,1.390041656494140625e+02
7.199999809265136719e+00,1.393320007324218750e+02
7.239999771118164062e+00,1.396610717773437500e+02
7.279999732971191406e+00,1.399867248535156250e+02
7.319999694824218750e+00,1.403093414306640625e+02
7.359999656677246094e+00,1.406284790039062500e+02
7.399999618530273438e+00,1.409359283447265625e+02
7.439999580383300781e+00,1.412317504882812500e+02
7.479999542236328125e+00,1.415244445800781250e+02
7.519999980926513672e+00,1.418137664794921875e+02
7.559999942779541016e+00,1.420999603271484375e+02
7.599999904632568359e+00,1.423702087402343750e+02
7.639999866485595703e+00,1.426242218017578125e+02
7.679999828338623047e+00,1.428752899169921875e+02
7.719999790191650391e+00,1.431408996582031250e+02
7.759999752044677734e+00,1.434039611816406250e+02
7.799999713897705078e+00,1.436455993652343750e+02
7.839999675750732422e+00,1.438653564453125000e+02
7.879999637603759766e+00,1.440822448730468750e+02
7.919999599456787109e+00,1.442916564941406250e+02
7.959999561309814453e+00,1.444982147216796875e+02
7.999999523162841797e+00,1.446665039062500000e+02
8.039999961853027344e+00,1.447965087890625000e+02
8.079999923706054688e+00,1.449237976074218750e+02
8.119999885559082031e+00,1.450501708984375000e+02
8.159999847412109375e+00,1.451367340087890625e+02
8.199999809265136719e+00,1.451939697265625000e+02
8.239999771118164062e+00,1.452474060058593750e+02
8.279999732971191406e+00,1.453748321533203125e+02
8.319999694824218750e+00,1.454870758056640625e+02
8.359999656677246094e+00,1.455968170166015625e+02
8.399999618530273438e+00,1.456809692382812500e+02
8.439999580383300781e+00,1.457397918701171875e+02
8.479999542236328125e+00,1.457959899902343750e+02
8.520000457763671875e+00,1.458907775878906250e+02
8.560000419616699219e+00,1.459829864501953125e+02
8.600000381469726562e+00,1.460518646240234375e+02
8.640000343322753906e+00,1.460971984863281250e+02
8.680000305175781250e+00,1.461399536132812500e+02
8.720000267028808594e+00,1.461516265869140625e+02
8.760000228881835938e+00,1.461607971191406250e+02
8.800000190734863281e+00,1.461469116210937500e+02
8.840000152587890625e+00,1.461099395751953125e+02
8.880000114440917969e+00,1.460703887939453125e+02
8.920000076293945312e+00,1.460434265136718750e+02
8.960000038146972656e+00,1.459937133789062500e+02
9.000000000000000000e+00,1.459113769531250000e+02
9.039999961853027344e+00,1.458077087402343750e+02
9.079999923706054688e+00,1.457015533447265625e+02
9.119999885559082031e+00,1.456268005371093750e+02
9.159999847412109375e+00,1.456352844238281250e+02
9.199999809265136719e+00,1.456216430664062500e+02
9.239999771118164062e+00,1.455857238769531250e+02
9.279999732971191406e+00,1.455471496582031250e+02
9.319999694824218750e+00,1.454906768798828125e+02
9.359999656677246094e+00,1.454315185546875000e+02
9.399999618530273438e+00,1.453456420898437500e+02
9.439999580383300781e+00,1.452329711914062500e+02
9.479999542236328125e+00,1.451176757812500000e+02
9.519999504089355469e+00,1.450043029785156250e+02
9.560000419616699219e+00,1.448884582519531250e+02
9.600000381469726562e+00,1.446661071777343750e+02
9.640000343322753906e+00,1.443690795898437500e+02
9.680000305175781250e+00,1.441649627685546875e+02
9.720000267028808594e+00,1.439655914306640625e+02
9.760000228881835938e+00,1.437635498046875000e+02
9.800000190734863281e+00,1.433249969482421875e+02
9.840000152587890625e+00,1.426456756591796875e+02
9.880000114440917969e+00,1.419506530761718750e+02
9.920000076293945312e+00,1.412698364257812500e+02
9.960000038146972656e+00,1.408559265136718750e+02
1.000000000000000000e+01,1.390318145751953125e+02
1.003999996185302734e+01,1.356060180664062500e+02
1.007999992370605469e+01,1.321765441894531250e+02
1.011999988555908203e+01,1.287059783935546875e+02
1.015999984741210938e+01,1.252353515625000000e+02
1.019999980926513672e+01,1.214305267333984375e+02
1.023999977111816406e+01,1.217139358520507812e+02
1.027999973297119141e+01,1.219924697875976562e+02
1.032000064849853516e+01,1.223045883178710938e+02
1.036000061035156250e+01,1.226122207641601562e+02
1.040000057220458984e+01,1.233923187255859375e+02
1.044000053405761719e+01,1.243937759399414062e+02
1.048000049591064453e+01,1.246136169433593750e+02
1.052000045776367188e+01,1.248012847900390625e+02
1.056000041961669922e+01,1.249847259521484375e+02
1.060000038146972656e+01,1.248222427368164062e+02
1.064000034332275391e+01,1.243166961669921875e+02
1.068000030517578125e+01,1.238102722167968750e+02
1.072000026702880859e+01,1.233160781860351562e+02
1.076000022888183594e+01,1.228210296630859375e+02
1.080000019073486328e+01,1.222578125000000000e+02
1.084000015258789062e+01,1.216190032958984375e+02
1.088000011444091797e+01,1.209765701293945312e+02
1.092000007629394531e+01,1.203016204833984375e+02
1.096000003814697266e+01,1.196274414062500000e+02
1.100000000000000000e+01,1.188905029296875000e+02
1.103999996185302734e+01,1.180915374755859375e+02
1.107999992370605469e+01,1.172945938110351562e+02
1.111999988555908203e+01,1.171961212158203125e+02
1.115999984741210938e+01,1.170964279174804688e+02
1.119999980926513672e+01,1.167067413330078125e+02
1.123999977111816406e+01,1.160270996093750000e+02
1.127999973297119141e+01,1.153460769653320312e+02
1.131999969482421875e+01,1.146754531860351562e+02
1.136000061035156250e+01,1.140034942626953125e+02
1.140000057220458984e+01,1.127900848388671875e+02
1.144000053405761719e+01,1.110336151123046875e+02
1.148000049591064453e+01,1.092733154296875000e+02
1.152000045776367188e+01,1.074086761474609375e+02
1.156000041961669922e+01,1.024151916503906250e+02
1.160000038146972656e+01,1.011125183105468750e+02
1.164000034332275391e+01,1.007586669921875000e+02
1.168000030517578125e+01,1.004016876220703125e+02
1.172000026702880859e+01,1.000405960083007812e+02
1.176000022888183594e+01,9.967480468750000000e+01
1.180000019073486328e+01,9.922039794921875000e+01
1.184000015258789062e+01,9.867990112304687500e+01
1.188000011444091797e+01,9.813970947265625000e+01
1.192000007629394531e+01,9.759725952148437500e+01
1.196000003814697266e+01,9.705213928222656250e+01
1.200000000000000000e+01,9.643505859375000000e+01
1.203999996185302734e+01,9.574658203125000000e+01
1.207999992370605469e+01,9.526702880859375000e+01
1.211999988555908203e+01,9.539405822753906250e+01
1.215999984741210938e+01,9.552061462402343750e+01
1.219999980926513672e+01,9.560140228271484375e+01
1.223999977111816406e+01,9.563627624511718750e+01
1.227999973297119141e+01,9.567065429687500000e+01
1.231999969482421875e+01,9.570413208007812500e+01
1.236000061035156250e+01,9.573721313476562500e+01
1.240000057220458984e+01,9.570652770996093750e+01
1.244000053405761719e+01,9.561241149902343750e+01
1.248000049591064453e+01,9.551777648925781250e+01
1.252000045776367188e+01,9.541463470458984375e+01
1.256000041961669922e+01,9.531118774414062500e+01
1.260000038146972656e+01,9.517312622070312500e+01
1.264000034332275391e+01,9.500061035156250000e+01
1.268000030517578125e+01,9.482784271240234375e+01
1.272000026702880859e+01,9.466102600097656250e+01
1.276000022888183594e+01,9.449385070800781250e+01
1.280000019073486328e+01,9.430523681640625000e+01
1.284000015258789062e+01,9.409521484375000000e+01
1.288000011444091797e+01,9.388529968261718750e+01
1.292000007629394531e+01,9.367564392089843750e+01
1.296000003814697266e+01,9.346574401855468750e+01
1.300000000000000000e+01,9.316548156738281250e+01
1.303999996185302734e+01,9.277509307861328125e+01
1.307999992370605469e+01,9.238499450683593750e+01
1.311999988555908203e+01,9.198571014404296875e+01
1.315999984741210938e+01,9.158561706542968750e+01
1.319999980926513672e+01,9.113459777832031250e+01
1.323999977111816406e+01,9.063316345214843750e+01
1.327999973297119141e+01,9.009676361083984375e+01
1.331999969482421875e+01,8.862020111083984375e+01
1.335999965667724609e+01,8.813103485107421875e+01
1.340000057220458984e+01,8.779299926757812500e+01
1.344000053405761719e+01,8.756449890136718750e+01
1.348000049591064453e+01,8.733558654785156250e+01
1.352000045776367188e+01,8.712120819091796875e+01
1.356000041961669922e+01,8.690641021728515625e+01
1.360000038146972656e+01,8.666318511962890625e+01
1.364000034332275391e+01,8.639174652099609375e+01
1.368000030517578125e+01,8.611958312988281250e+01
1.372000026702880859e+01,8.583276367187500000e+01
1.376000022888183594e+01,8.554557037353515625e+01
1.380000019073486328e+01,8.523601531982421875e+01
1.384000015258789062e+01,8.456897735595703125e+01
1.388000011444091797e+01,8.422370147705078125e+01
1.392000007629394531e+01,8.405102539062500000e+01
1.396000003814697266e+01,8.387859344482421875e+01
1.400000000000000000e+01,8.372251892089843750e+01
1.403999996185302734e+01,8.358280944824218750e+01
1.407999992370605469e+01,8.344269561767578125e+01
1.411999988555908203e+01,8.331078338623046875e+01
1.415999984741210938e+01,8.317847442626953125e+01
1.419999980926513672e+01,8.304398345947265625e+01
1.423999977111816406e+01,8.290727996826171875e+01
1.427999973297119141e+01,8.277021789550781250e+01
1.431999969482421875e+01,8.263128662109375000e+01
1.435999965667724609e+01,8.249206542968750000e+01
1.439999961853027344e+01,8.234354400634765625e+01
1.444000053405761719e+01,8.218326568603515625e+01
1.448000049591064453e+01,8.202287292480468750e+01
1.452000045776367188e+01,8.186231994628906250e+01
1.456000041961669922e+01,8.170151519775390625e+01
1.460000038146972656e+01,8.153883361816406250e+01
1.464000034332275391e+01,8.137424468994140625e+01
1.468000030517578125e+01,8.120946502685546875e+01
1.472000026702880859e+01,8.103736877441406250e+01
1.476000022888183594e+01,8.086508178710937500e+01
1.480000019073486328e+01,8.069132232666015625e+01
1.484000015258789062e+01,8.051607513427734375e+01
1.488000011444091797e+01,8.034044647216796875e+01
1.492000007629394531e+01,8.015915679931640625e+01
1.496000003814697266e+01,7.997774505615234375e+01
1.500000000000000000e+01,7.979656982421875000e+01
1.503999996185302734e+01,7.961564636230468750e+01
1.507999992370605469e+01,7.943458557128906250e+01
1.511999988555908203e+01,7.927208709716796875e+01
1.515999984741210938e+01,7.910938262939453125e+01
1.519999980926513672e+01,7.894403076171875000e+01
1.523999977111816406e+01,7.877599334716796875e+01
1.527999973297119141e+01,7.860774230957031250e+01
1.531999969482421875e+01,7.842111206054687500e+01
1.535999965667724609e+01,7.823432922363281250e+01
1.539999961853027344e+01,7.804812622070312500e+01
1.544000053405761719e+01,7.786248779296875000e+01
1.548000049591064453e+01,7.767675018310546875e+01
1.552000045776367188e+01,7.750981903076171875e+01
1.556000041961669922e+01,7.734262847900390625e+01
1.560000038146972656e+01,7.718010711669921875e+01
1.564000034332275391e+01,7.702220153808593750e+01
1.568000030517578125e+01,7.686405944824218750e+01
1.572000026702880859e+01,7.666488647460937500e+01
1.576000022888183594e+01,7.646514892578125000e+01
1.580000019073486328e+01,7.626128387451171875e+01
1.584000015258789062e+01,7.605323791503906250e+01
1.588000011444091797e+01,7.584374237060546875e+01
1.592000007629394531e+01,7.562816619873046875e+01
1.596000003814697266e+01,7.541262054443359375e+01
1.600000000000000000e+01,7.519670104980468750e+01
1.603999900817871094e+01,7.498037719726562500e+01
1.607999992370605469e+01,7.476406097412109375e+01
1.611999893188476562e+01,7.456281280517578125e+01
1.615999984741210938e+01,7.436145019531250000e+01
1.619999885559082031e+01,7.416004943847656250e+01
1.623999977111816406e+01,7.395850372314453125e+01
1.627999877929687500e+01,7.375694274902343750e+01
1.631999969482421875e+01,7.353815460205078125e+01
1.635999870300292969e+01,7.331939697265625000e+01
1.639999961853027344e+01,7.310067749023437500e+01
1.643999862670898438e+01,7.288204193115234375e+01
1.647999954223632812e+01,7.266338348388671875e+01
1.652000045776367188e+01,7.246112060546875000e+01
1.655999946594238281e+01,7.225881958007812500e+01
1.660000038146972656e+01,7.205645751953125000e+01
1.663999938964843750e+01,7.185404968261718750e+01
1.668000030517578125e+01,7.165155029296875000e+01
1.671999931335449219e+01,7.143527984619140625e+01
1.676000022888183594e+01,7.121903991699218750e+01
1.679999923706054688e+01,7.100279235839843750e+01
1.684000015258789062e+01,7.078657531738281250e+01
1.687999916076660156e+01,7.057040405273437500e+01
1.692000007629394531e+01,7.036009216308593750e+01
1.695999908447265625e+01,7.014978027343750000e+01
1.700000000000000000e+01,6.994181823730468750e+01
1.703999900817871094e+01,6.973607635498046875e+01
1.707999992370605469e+01,6.953033447265625000e+01
1.711999893188476562e+01,6.933895111083984375e+01
1.715999984741210938e+01,6.914750671386718750e+01
1.719999885559082031e+01,6.895602416992187500e+01
1.723999977111816406e+01,6.876451873779296875e+01
1.727999877929687500e+01,6.858120727539062500e+01
1.731999969482421875e+01,6.838652038574218750e+01
1.735999870300292969e+01,6.819189453125000000e+01
1.739999961853027344e+01,6.799720764160156250e+01
1.743999862670898438e+01,6.780226898193359375e+01
1.747999954223632812e+01,6.760657501220703125e+01
