# Start of Energy Bin (keV), Effective Area (cm^2)
1.600000023841857910e+00,6.437709331512451172e-01
1.639999985694885254e+00,8.729751110076904297e-01
1.680000066757202148e+00,1.180498480796813965e+00
1.720000028610229492e+00,1.592266917228698730e+00
1.759999990463256836e+00,2.113405704498291016e+00
1.799999952316284180e+00,2.621330261230468750e+00
1.840000033378601074e+00,1.608245015144348145e+00
1.879999995231628418e+00,2.010038614273071289e+00
1.920000076293945312e+00,2.577214479446411133e+00
1.960000038146972656e+00,3.205686807632446289e+00
2.000000000000000000e+00,3.920918226242065430e+00
2.039999961853027344e+00,4.756068706512451172e+00
2.079999923706054688e+00,5.763040542602539062e+00
2.119999885559082031e+00,5.459334373474121094e+00
2.160000085830688477e+00,6.276475906372070312e+00
2.200000047683715820e+00,6.605313301086425781e+00
2.240000009536743164e+00,7.503164768218994141e+00
2.279999971389770508e+00,8.548105239868164062e+00
2.319999933242797852e+00,9.832755088806152344e+00
2.360000133514404297e+00,1.107729911804199219e+01
2.400000095367431641e+00,1.226661014556884766e+01
2.440000057220458984e+00,1.360042381286621094e+01
2.480000019073486328e+00,1.514068412780761719e+01
2.519999980926513672e+00,1.696905517578125000e+01
2.559999942779541016e+00,1.896231651306152344e+01
2.599999904632568359e+00,2.075132179260253906e+01
2.639999866485595703e+00,2.128666687011718750e+01
2.679999828338623047e+00,2.307633972167968750e+01
2.720000028610229492e+00,2.499012374877929688e+01
2.759999990463256836e+00,2.704935073852539062e+01
2.799999952316284180e+00,2.925708007812500000e+01
2.840000152587890625e+00,3.153070259094238281e+01
2.880000114440917969e+00,3.348081970214843750e+01
2.920000076293945312e+00,3.551901626586914062e+01
2.960000038146972656e+00,3.766984176635742188e+01
3.000000000000000000e+00,3.982833862304687500e+01
3.039999961853027344e+00,4.099391555786132812e+01
3.079999923706054688e+00,4.300953674316406250e+01
3.119999885559082031e+00,4.506488418579101562e+01
3.159999847412109375e+00,4.668542480468750000e+01
3.199999809265136719e+00,4.833839797973632812e+01
3.240000009536743164e+00,5.002539825439453125e+01
3.279999971389770508e+00,5.118067932128906250e+01
3.319999933242797852e+00,5.450467300415039062e+01
3.360000133514404297e+00,5.801422882080078125e+01
3.400000095367431641e+00,6.169474029541015625e+01
3.440000057220458984e+00,6.414441680908203125e+01
3.480000019073486328e+00,6.576268768310546875e+01
3.519999980926513672e+00,6.294405746459960938e+01
3.559999942779541016e+00,6.454396057128906250e+01
3.599999904632568359e+00,6.620866394042968750e+01
3.639999866485595703e+00,6.789447021484375000e+01
3.679999828338623047e+00,6.960337066650390625e+01
3.719999790191650391e+00,6.903446960449218750e+01
3.759999752044677734e+00,7.078849029541015625e+01
3.800000190734863281e+00,7.231003570556640625e+01
3.840000152587890625e+00,7.367302703857421875e+01
3.880000114440917969e+00,7.503729248046875000e+01
3.920000076293945312e+00,7.679335021972656250e+01
3.960000038146972656e+00,7.869097900390625000e+01
4.000000000000000000e+00,7.938142395019531250e+01
4.039999961853027344e+00,8.123112487792968750e+01
4.079999923706054688e+00,8.310107421875000000e+01
4.119999885559082031e+00,8.497327423095703125e+01
4.159999847412109375e+00,8.684411621093750000e+01
4.199999809265136719e+00,8.844285583496093750e+01
4.239999771118164062e+00,9.004874420166015625e+01
4.279999732971191406e+00,9.166674804687500000e+01
4.320000171661376953e+00,8.918505096435546875e+01
4.360000133514404297e+00,8.937154388427734375e+01
4.400000095367431641e+00,9.078117370605468750e+01
4.440000057220458984e+00,9.219905853271484375e+01
4.480000019073486328e+00,9.363435363769531250e+01
4.519999980926513672e+00,9.506841278076171875e+01
4.559999942779541016e+00,9.649867248535156250e+01
4.599999904632568359e+00,9.492015075683593750e+01
4.639999866485595703e+00,9.623351287841796875e+01
4.679999828338623047e+00,9.740371704101562500e+01
4.719999790191650391e+00,9.858017730712890625e+01
4.759999752044677734e+00,9.975650024414062500e+01
4.799999713897705078e+00,1.009331436157226562e+02
4.840000152587890625e+00,1.021030578613281250e+02
4.880000114440917969e+00,1.032701034545898438e+02
4.920000076293945312e+00,1.030527725219726562e+02
4.960000038146972656e+00,1.042216796875000000e+02
5.000000000000000000e+00,1.053619155883789062e+02
5.039999961853027344e+00,1.065045318603515625e+02
5.079999923706054688e+00,1.075341949462890625e+02
5.119999885559082031e+00,1.085502777099609375e+02
5.159999847412109375e+00,1.095609893798828125e+02
5.199999809265136719e+00,1.105645065307617188e+02
5.239999771118164062e+00,1.115618896484375000e+02
5.279999732971191406e+00,1.125569152832031250e+02
5.320000171661376953e+00,1.135652313232421875e+02
5.360000133514404297e+00,1.145712661743164062e+02
5.400000095367431641e+00,1.155724487304687500e+02
5.440000057220458984e+00,1.165673904418945312e+02
5.480000019073486328e+00,1.175590438842773438e+02
5.519999980926513672e+00,1.185449371337890625e+02
5.559999942779541016e+00,1.194495468139648438e+02
5.599999904632568359e+00,1.202681503295898438e+02
5.639999866485595703e+00,1.210805511474609375e+02
5.679999828338623047e+00,1.218884506225585938e+02
5.719999790191650391e+00,1.226811141967773438e+02
5.759999752044677734e+00,1.234694671630859375e+02
5.799999713897705078e+00,1.242425765991210938e+02
5.839999675750732422e+00,1.250011138916015625e+02
5.879999637603759766e+00,1.257550888061523438e+02
5.919999599456787109e+00,1.265026855468750000e+02
5.960000038146972656e+00,1.272456130981445312e+02
6.000000000000000000e+00,1.279607162475585938e+02
6.039999961853027344e+00,1.286473236083984375e+02
6.079999923706054688e+00,1.293293304443359375e+02
6.119999885559082031e+00,1.299596099853515625e+02
6.159999847412109375e+00,1.305454711914062500e+02
6.199999809265136719e+00,1.311307678222656250e+02
6.239999771118164062e+00,1.317160339355468750e+02
6.279999732971191406e+00,1.322968902587890625e+02
6.319999694824218750e+00,1.328928375244140625e+02
6.359999656677246094e+00,1.334844970703125000e+02
6.399999618530273438e+00,1.340678253173828125e+02
6.439999580383300781e+00,1.346430664062500000e+02
6.480000019073486328e+00,1.352143554687500000e+02
6.519999980926513672e+00,1.357385253906250000e+02
6.559999942779541016e+00,1.362586212158203125e+02
6.599999904632568359e+00,1.367701721191406250e+02
6.639999866485595703e+00,1.372733001708984375e+02
6.679999828338623047e+00,1.377724151611328125e+02
6.719999790191650391e+00,1.382785339355468750e+02
6.759999752044677734e+00,1.387244110107421875e+02
6.799999713897705078e+00,1.391580657958984375e+02
6.839999675750732422e+00,1.395796966552734375e+02
6.879999637603759766e+00,1.399976043701171875e+02
6.919999599456787109e+00,1.403812713623046875e+02
6.959999561309814453e+00,1.407612152099609375e+02
7.000000000000000000e+00,1.411058959960937500e+02
7.039999961853027344e+00,1.414150085449218750e+02
7.079999923706054688e+00,1.417211303710937500e+02
7.119999885559082031e+00,1.413028259277343750e+02
7.159999847412109375e+00,1.416262512207031250e+02
7.199999809265136719e+00,1.419468078613281250e+02
7.239999771118164062e+00,1.422648315429687500e+02
7.279999732971191406e+00,1.425795593261718750e+02
7.319999694824218750e+00,1.428776702880859375e+02
7.359999656677246094e+00,1.431723480224609375e+02
7.399999618530273438e+00,1.434504394531250000e+02
7.439999580383300781e+00,1.437120361328125000e+02
7.479999542236328125e+00,1.439705200195312500e+02
7.519999980926513672e+00,1.442286987304687500e+02
7.559999942779541016e+00,1.444837799072265625e+02
7.599999904632568359e+00,1.447153320312500000e+02
7.639999866485595703e+00,1.449230804443359375e+02
7.679999828338623047e+00,1.451279144287109375e+02
7.719999790191650391e+00,1.453221740722656250e+02
7.759999752044677734e+00,1.455137481689453125e+02
7.799999713897705078e+00,1.456784820556640625e+02
7.839999675750732422e+00,1.458159332275390625e+02
7.879999637603759766e+00,1.459504089355468750e+02
7.919999599456787109e+00,1.461149902343750000e+02
7.959999561309814453e+00,1.462766876220703125e+02
7.999999523162841797e+00,1.463973999023437500e+02
8.039999961853027344e+00,1.464770050048828125e+02
8.079999923706054688e+00,1.465537872314453125e+02
8.119999885559082031e+00,1.466059722900390625e+02
8.159999847412109375e+00,1.466179351806640625e+02
8.199999809265136719e+00,1.466063385009765625e+02
8.239999771118164062e+00,1.466032257080078125e+02
8.279999732971191406e+00,1.466933288574218750e+02
8.319999694824218750e+00,1.467946166992187500e+02
8.359999656677246094e+00,1.468933563232421875e+02
8.399999618530273438e+00,1.469707489013671875e+02
8.439999580383300781e+00,1.470270843505859375e+02
8.479999542236328125e+00,1.470807952880859375e+02
8.520000457763671875e+00,1.471551055908203125e+02
8.560000419616699219e+00,1.472268066406250000e+02
8.600000381469726562e+00,1.472767639160156250e+02
8.640000343322753906e+00,1.473048248291015625e+02
8.680000305175781250e+00,1.473302307128906250e+02
8.720000267028808594e+00,1.473383483886718750e+02
8.760000228881835938e+00,1.473439331054687500e+02
8.800000190734863281e+00,1.473306274414062500e+02
8.840000152587890625e+00,1.472984466552734375e+02
8.880000114440917969e+00,1.472636413574218750e+02
8.920000076293945312e+00,1.472249450683593750e+02
8.960000038146972656e+00,1.471632843017578125e+02
9.000000000000000000e+00,1.470738677978515625e+02
9.039999961853027344e+00,1.469681396484375000e+02
9.079999923706054688e+00,1.468599395751953125e+02
9.119999885559082031e+00,1.468122253417968750e+02
9.159999847412109375e+00,1.468506469726562500e+02
9.199999809265136719e+00,1.468700408935546875e+02
9.239999771118164062e+00,1.468703155517578125e+02
9.279999732971191406e+00,1.468679351806640625e+02
9.319999694824218750e+00,1.468545837402343750e+02
9.359999656677246094e+00,1.468385467529296875e+02
9.399999618530273438e+00,1.467942352294921875e+02
9.439999580383300781e+00,1.467215270996093750e+02
9.479999542236328125e+00,1.466461181640625000e+02
9.519999504089355469e+00,1.466110992431640625e+02
9.560000419616699219e+00,1.465734405517578125e+02
9.600000381469726562e+00,1.464152526855468750e+02
9.640000343322753906e+00,1.461728210449218750e+02
9.680000305175781250e+00,1.460370330810546875e+02
9.720000267028808594e+00,1.458998413085937500e+02
9.760000228881835938e+00,1.457596893310546875e+02
9.800000190734863281e+00,1.453676147460937500e+02
9.840000152587890625e+00,1.447189331054687500e+02
9.880000114440917969e+00,1.440535583496093750e+02
9.920000076293945312e+00,1.434034729003906250e+02
9.960000038146972656e+00,1.430226287841796875e+02
1.000000000000000000e+01,1.411842956542968750e+02
1.003999996185302734e+01,1.376947326660156250e+02
1.007999992370605469e+01,1.342007598876953125e+02
1.011999988555908203e+01,1.307018432617187500e+02
1.015999984741210938e+01,1.272002792358398438e+02
1.019999980926513672e+01,1.233563003540039062e+02
1.023999977111816406e+01,1.237505035400390625e+02
1.027999973297119141e+01,1.241402053833007812e+02
1.032000064849853516e+01,1.245578308105468750e+02
1.036000061035156250e+01,1.249712524414062500e+02
1.040000057220458984e+01,1.258704757690429688e+02
1.044000053405761719e+01,1.269878463745117188e+02
1.048000049591064453e+01,1.272701721191406250e+02
1.052000045776367188e+01,1.275082397460937500e+02
1.056000041961669922e+01,1.277417068481445312e+02
1.060000038146972656e+01,1.276094207763671875e+02
1.064000034332275391e+01,1.271140594482421875e+02
1.068000030517578125e+01,1.266171875000000000e+02
1.072000026702880859e+01,1.261257705688476562e+02
1.076000022888183594e+01,1.256329269409179688e+02
1.080000019073486328e+01,1.250671463012695312e+02
1.084000015258789062e+01,1.244208831787109375e+02
1.088000011444091797e+01,1.237704010009765625e+02
1.092000007629394531e+01,1.230739212036132812e+02
1.096000003814697266e+01,1.223778839111328125e+02
1.100000000000000000e+01,1.216153717041015625e+02
1.103999996185302734e+01,1.207871627807617188e+02
1.107999992370605469e+01,1.199607238769531250e+02
1.111999988555908203e+01,1.198746871948242188e+02
1.115999984741210938e+01,1.197873611450195312e+02
1.119999980926513672e+01,1.193975143432617188e+02
1.123999977111816406e+01,1.187050476074218750e+02
1.127999973297119141e+01,1.180110321044921875e+02
1.131999969482421875e+01,1.173085784912109375e+02
1.136000061035156250e+01,1.166048278808593750e+02
1.140000057220458984e+01,1.153613052368164062e+02
1.144000053405761719e+01,1.135760421752929688e+02
1.148000049591064453e+01,1.117864990234375000e+02
1.152000045776367188e+01,1.099357604980468750e+02
1.156000041961669922e+01,1.056504974365234375e+02
1.160000038146972656e+01,1.043671569824218750e+02
1.164000034332275391e+01,1.040553283691406250e+02
1.168000030517578125e+01,1.037399215698242188e+02
1.172000026702880859e+01,1.034050903320312500e+02
1.176000022888183594e+01,1.030656280517578125e+02
1.180000019073486328e+01,1.026281967163085938e+02
1.184000015258789062e+01,1.020953826904296875e+02
1.188000011444091797e+01,1.015626220703125000e+02
1.192000007629394531e+01,1.010127258300781250e+02
1.196000003814697266e+01,1.004599227905273438e+02
1.200000000000000000e+01,9.983392333984375000e+01
1.203999996185302734e+01,9.913516998291015625e+01
1.207999992370605469e+01,9.865748596191406250e+01
1.211999988555908203e+01,9.882436370849609375e+01
1.215999984741210938e+01,9.899094390869140625e+01
1.219999980926513672e+01,9.910822296142578125e+01
1.223999977111816406e+01,9.917602539062500000e+01
1.227999973297119141e+01,9.924340057373046875e+01
1.231999969482421875e+01,9.932067871093750000e+01
1.236000061035156250e+01,9.939762878417968750e+01
1.240000057220458984e+01,9.940726470947265625e+01
1.244000053405761719e+01,9.934982299804687500e+01
1.248000049591064453e+01,9.929182434082031250e+01
1.252000045776367188e+01,9.920037078857421875e+01
1.256000041961669922e+01,9.910861968994140625e+01
1.260000038146972656e+01,9.898103332519531250e+01
1.264000034332275391e+01,9.881770324707031250e+01
1.268000030517578125e+01,9.865412139892578125e+01
1.272000026702880859e+01,9.851188659667968750e+01
1.276000022888183594e+01,9.836924743652343750e+01
1.280000019073486328e+01,9.820481872558593750e+01
1.284000015258789062e+01,9.801858520507812500e+01
1.288000011444091797e+01,9.783230590820312500e+01
1.292000007629394531e+01,9.759835815429687500e+01
1.296000003814697266e+01,9.736429595947265625e+01
1.300000000000000000e+01,9.703933715820312500e+01
1.303999996185302734e+01,9.662374877929687500e+01
1.307999992370605469e+01,9.620860290527343750e+01
1.311999988555908203e+01,9.581694030761718750e+01
1.315999984741210938e+01,9.542428588867187500e+01
1.319999980926513672e+01,9.498010253906250000e+01
1.323999977111816406e+01,9.448477172851562500e+01
1.327999973297119141e+01,9.394779205322265625e+01
1.331999969482421875e+01,9.271186828613281250e+01
1.335999965667724609e+01,9.223899841308593750e+01
1.340000057220458984e+01,9.191872406005859375e+01
1.344000053405761719e+01,9.171205139160156250e+01
1.348000049591064453e+01,9.150485229492187500e+01
1.352000045776367188e+01,9.127293395996093750e+01
1.356000041961669922e+01,9.104064941406250000e+01
1.360000038146972656e+01,9.078031921386718750e+01
1.364000034332275391e+01,9.049214935302734375e+01
1.368000030517578125e+01,9.020343017578125000e+01
1.372000026702880859e+01,8.993294525146484375e+01
1.376000022888183594e+01,8.966191864013671875e+01
1.380000019073486328e+01,8.936739349365234375e+01
1.384000015258789062e+01,8.879714965820312500e+01
1.388000011444091797e+01,8.849916839599609375e+01
1.392000007629394531e+01,8.833369445800781250e+01
1.396000003814697266e+01,8.816828918457031250e+01
1.400000000000000000e+01,8.802011871337890625e+01
1.403999996185302734e+01,8.788919830322265625e+01
1.407999992370605469e+01,8.775787353515625000e+01
1.411999988555908203e+01,8.763283538818359375e+01
1.415999984741210938e+01,8.750740814208984375e+01
1.419999980926513672e+01,8.738012695312500000e+01
1.423999977111816406e+01,8.725098419189453125e+01
1.427999973297119141e+01,8.712148284912109375e+01
1.431999969482421875e+01,8.699538421630859375e+01
1.435999965667724609e+01,8.686896514892578125e+01
1.439999961853027344e+01,8.673312377929687500e+01
1.444000053405761719e+01,8.658528137207031250e+01
1.448000049591064453e+01,8.643722534179687500e+01
1.452000045776367188e+01,8.628730010986328125e+01
1.456000041961669922e+01,8.613709259033203125e+01
1.460000038146972656e+01,8.598527526855468750e+01
1.464000034332275391e+01,8.583178710937500000e+01
1.468000030517578125e+01,8.567807769775390625e+01
1.472000026702880859e+01,8.552003479003906250e+01
1.476000022888183594e+01,8.536173248291015625e+01
1.480000019073486328e+01,8.520192718505859375e+01
1.484000015258789062e+01,8.504058837890625000e+01
1.488000011444091797e+01,8.487885284423828125e+01
1.492000007629394531e+01,8.472627258300781250e+01
1.496000003814697266e+01,8.457343292236328125e+01
1.500000000000000000e+01,8.442078399658203125e+01
1.503999996185302734e+01,8.426835632324218750e+01
1.507999992370605469e+01,8.411565399169921875e+01
1.511999988555908203e+01,8.395372009277343750e+01
1.515999984741210938e+01,8.379158020019531250e+01
1.519999980926513672e+01,8.362627410888671875e+01
1.523999977111816406e+01,8.345776367187500000e+01
1.527999973297119141e+01,8.328902435302734375e+01
1.531999969482421875e+01,8.310990142822265625e+01
1.535999965667724609e+01,8.293056488037109375e+01
1.539999961853027344e+01,8.275131225585937500e+01
1.544000053405761719e+01,8.257208251953125000e+01
1.548000049591064453e+01,8.239270019531250000e+01
1.552000045776367188e+01,8.224482727050781250e+01
1.556000041961669922e+01,8.209659576416015625e+01
1.560000038146972656e+01,8.195260620117187500e+01
1.564000034332275391e+01,8.181285095214843750e+01
1.568000030517578125e+01,8.167276763916015625e+01
1.572000026702880859e+01,8.147704315185546875e+01
1.576000022888183594e+01,8.128054809570312500e+01
1.580000019073486328e+01,8.107895660400390625e+01
1.584000015258789062e+01,8.087223815917968750e+01
1.588000011444091797e+01,8.066390228271484375e+01
1.592000007629394531e+01,8.045179748535156250e+01
1.596000003814697266e+01,8.023963928222656250e+01
1.600000000000000000e+01,8.002596282958984375e+01
1.603999900817871094e+01,7.981072235107421875e+01
1.607999992370605469e+01,7.959543609619140625e+01
1.611999893188476562e+01,7.938481140136718750e+01
1.615999984741210938e+01,7.917409515380859375e+01
1.619999885559082031e+01,7.896331787109375000e+01
1.623999977111816406e+01,7.875240325927734375e+01
1.627999877929687500e+01,7.854145812988281250e+01
1.631999969482421875e+01,7.833464050292968750e+01
1.635999870300292969e+01,7.812771606445312500e+01
1.639999961853027344e+01,7.792069244384765625e+01
1.643999862670898438e+01,7.771362304687500000e+01
1.647999954223632812e+01,7.750639343261718750e+01
1.652000045776367188e+01,7.729170227050781250e+01
1.655999946594238281e+01,7.707699584960937500e+01
1.660000038146972656e+01,7.686223602294921875e+01
1.663999938964843750e+01,7.664742279052734375e+01
1.668000030517578125e+01,7.643254089355468750e+01
1.671999931335449219e+01,7.621382141113281250e+01
1.676000022888183594e+01,7.599509429931640625e+01
1.679999923706054688e+01,7.577629089355468750e+01
1.684000015258789062e+01,7.555746459960937500e+01
1.687999916076660156e+01,7.533863830566406250e+01
1.692000007629394531e+01,7.511667633056640625e+01
1.695999908447265625e+01,7.489473724365234375e+01
1.700000000000000000e+01,7.467305755615234375e+01
1.703999900817871094e+01,7.445155334472656250e+01
1.707999992370605469e+01,7.423007202148437500e+01
1.711999893188476562e+01,7.404552459716796875e+01
1.715999984741210938e+01,7.386076354980468750e+01
1.719999885559082031e+01,7.367584991455078125e+01
1.723999977111816406e+01,7.349077606201171875e+01
1.727999877929687500e+01,7.331410980224609375e+01
1.731999969482421875e+01,7.311540222167968750e+01
1.735999870300292969e+01,7.291670989990234375e+01
1.739999961853027344e+01,7.271790313720703125e+01
1.743999862670898438e+01,7.251876068115234375e+01
1.747999954223632812e+01,7.231877899169921875e+01
