# Start of Energy Bin (keV), Effective Area (cm^2)
1.600000023841857910e+00,3.055353760719299316e-01
1.639999985694885254e+00,4.142993390560150146e-01
1.680000066757202148e+00,5.602207779884338379e-01
1.720000028610229492e+00,7.555971145629882812e-01
1.759999990463256836e+00,1.002852797508239746e+00
1.799999952316284180e+00,1.243761062622070312e+00
1.840000033378601074e+00,7.630041241645812988e-01
1.879999995231628418e+00,9.536788463592529297e-01
1.920000076293945312e+00,1.222977161407470703e+00
1.960000038146972656e+00,1.521453619003295898e+00
2.000000000000000000e+00,1.861227631568908691e+00
2.039999961853027344e+00,2.258074045181274414e+00
2.079999923706054688e+00,2.736652374267578125e+00
2.119999885559082031e+00,2.592427730560302734e+00
2.160000085830688477e+00,2.980344295501708984e+00
2.200000047683715820e+00,3.136371850967407227e+00
2.240000009536743164e+00,3.562558889389038086e+00
2.279999971389770508e+00,4.058617591857910156e+00
2.319999933242797852e+00,4.668721675872802734e+00
2.360000133514404297e+00,5.259821891784667969e+00
2.400000095367431641e+00,5.824700832366943359e+00
2.440000057220458984e+00,6.458191871643066406e+00
2.480000019073486328e+00,7.189742088317871094e+00
2.519999980926513672e+00,8.058012962341308594e+00
2.559999942779541016e+00,9.004498481750488281e+00
2.599999904632568359e+00,9.853811264038085938e+00
2.639999866485595703e+00,1.010780048370361328e+01
2.679999828338623047e+00,1.095736885070800781e+01
2.720000028610229492e+00,1.186618041992187500e+01
2.759999990463256836e+00,1.284406661987304688e+01
2.799999952316284180e+00,1.389248466491699219e+01
2.840000152587890625e+00,1.497223854064941406e+01
2.880000114440917969e+00,1.589840412139892578e+01
2.920000076293945312e+00,1.686562538146972656e+01
2.960000038146972656e+00,1.788625335693359375e+01
3.000000000000000000e+00,1.888059616088867188e+01
3.039999961853027344e+00,1.937045288085937500e+01
3.079999923706054688e+00,2.025634765625000000e+01
3.119999885559082031e+00,2.115303039550781250e+01
3.159999847412109375e+00,2.183896636962890625e+01
3.199999809265136719e+00,2.253395462036132812e+01
3.240000009536743164e+00,2.323847579956054688e+01
3.279999971389770508e+00,2.369036483764648438e+01
3.319999933242797852e+00,2.538148880004882812e+01
3.360000133514404297e+00,2.717370414733886719e+01
3.400000095367431641e+00,2.905808639526367188e+01
3.440000057220458984e+00,3.025206756591796875e+01
3.480000019073486328e+00,3.101477050781250000e+01
3.519999980926513672e+00,2.968754959106445312e+01
3.559999942779541016e+00,3.044425964355468750e+01
3.599999904632568359e+00,3.123160171508789062e+01
3.639999866485595703e+00,3.202894973754882812e+01
3.679999828338623047e+00,3.283727264404296875e+01
3.719999790191650391e+00,3.256349182128906250e+01
3.759999752044677734e+00,3.338530731201171875e+01
3.800000190734863281e+00,3.409717941284179688e+01
3.840000152587890625e+00,3.473400878906250000e+01
3.880000114440917969e+00,3.537119293212890625e+01
3.920000076293945312e+00,3.619327163696289062e+01
3.960000038146972656e+00,3.708290863037109375e+01
4.000000000000000000e+00,3.740348052978515625e+01
4.039999961853027344e+00,3.827011871337890625e+01
4.079999923706054688e+00,3.914606475830078125e+01
4.119999885559082031e+00,4.002512741088867188e+01
4.159999847412109375e+00,4.090341186523437500e+01
4.199999809265136719e+00,4.165339660644531250e+01
4.239999771118164062e+00,4.240662384033203125e+01
4.279999732971191406e+00,4.316543579101562500e+01
4.320000171661376953e+00,4.200186157226562500e+01
4.360000133514404297e+00,4.209579467773437500e+01
4.400000095367431641e+00,4.276629257202148438e+01
4.440000057220458984e+00,4.344086074829101562e+01
4.480000019073486328e+00,4.412384033203125000e+01
4.519999980926513672e+00,4.480184936523437500e+01
4.559999942779541016e+00,4.547814178466796875e+01
4.599999904632568359e+00,4.473642730712890625e+01
4.639999866485595703e+00,4.535763549804687500e+01
4.679999828338623047e+00,4.591143798828125000e+01
4.719999790191650391e+00,4.646981430053710938e+01
4.759999752044677734e+00,4.702822494506835938e+01
4.799999713897705078e+00,4.758685684204101562e+01
4.840000152587890625e+00,4.814237976074218750e+01
4.880000114440917969e+00,4.869664764404296875e+01
4.920000076293945312e+00,4.859670639038085938e+01
4.960000038146972656e+00,4.915050506591796875e+01
5.000000000000000000e+00,4.969080734252929688e+01
5.039999961853027344e+00,5.021765136718750000e+01
5.079999923706054688e+00,5.068142700195312500e+01
5.119999885559082031e+00,5.113274383544921875e+01
5.159999847412109375e+00,5.158102035522460938e+01
5.199999809265136719e+00,5.202534484863281250e+01
5.239999771118164062e+00,5.246622467041015625e+01
5.279999732971191406e+00,5.290548706054687500e+01
5.320000171661376953e+00,5.336178970336914062e+01
5.360000133514404297e+00,5.381669235229492188e+01
5.400000095367431641e+00,5.426893615722656250e+01
5.440000057220458984e+00,5.471786499023437500e+01
5.480000019073486328e+00,5.516492843627929688e+01
5.519999980926513672e+00,5.560203552246093750e+01
5.559999942779541016e+00,5.600060653686523438e+01
5.599999904632568359e+00,5.635839080810546875e+01
5.639999866485595703e+00,5.671282958984375000e+01
5.679999828338623047e+00,5.706480407714843750e+01
5.719999790191650391e+00,5.741112899780273438e+01
5.759999752044677734e+00,5.775510025024414062e+01
5.799999713897705078e+00,5.809150695800781250e+01
5.839999675750732422e+00,5.842063140869140625e+01
5.879999637603759766e+00,5.874731445312500000e+01
5.919999599456787109e+00,5.906475830078125000e+01
5.960000038146972656e+00,5.937965393066406250e+01
6.000000000000000000e+00,5.968995285034179688e+01
6.039999961853027344e+00,5.999553680419921875e+01
6.079999923706054688e+00,6.029881286621093750e+01
6.119999885559082031e+00,6.058948516845703125e+01
6.159999847412109375e+00,6.085942077636718750e+01
6.199999809265136719e+00,6.112881469726562500e+01
6.239999771118164062e+00,6.139790344238281250e+01
6.279999732971191406e+00,6.166492080688476562e+01
6.319999694824218750e+00,6.192204284667968750e+01
6.359999656677246094e+00,6.217698287963867188e+01
6.399999618530273438e+00,6.242745208740234375e+01
6.439999580383300781e+00,6.267354583740234375e+01
6.480000019073486328e+00,6.291761016845703125e+01
6.519999980926513672e+00,6.315696334838867188e+01
6.559999942779541016e+00,6.339437103271484375e+01
6.599999904632568359e+00,6.362704849243164062e+01
6.639999866485595703e+00,6.385501098632812500e+01
6.679999828338623047e+00,6.408106994628906250e+01
6.719999790191650391e+00,6.429701995849609375e+01
6.759999752044677734e+00,6.448484039306640625e+01
6.799999713897705078e+00,6.466533660888671875e+01
6.839999675750732422e+00,6.483860778808593750e+01
6.879999637603759766e+00,6.500999450683593750e+01
6.919999599456787109e+00,6.517739868164062500e+01
6.959999561309814453e+00,6.534300231933593750e+01
7.000000000000000000e+00,6.548963165283203125e+01
7.039999961853027344e+00,6.561713409423828125e+01
7.079999923706054688e+00,6.574315643310546875e+01
7.119999885559082031e+00,6.551889038085937500e+01
7.159999847412109375e+00,6.563856506347656250e+01
7.199999809265136719e+00,6.575205993652343750e+01
7.239999771118164062e+00,6.585951995849609375e+01
7.279999732971191406e+00,6.596526336669921875e+01
7.319999694824218750e+00,6.608029937744140625e+01
7.359999656677246094e+00,6.619364166259765625e+01
7.399999618530273438e+00,6.629729461669921875e+01
7.439999580383300781e+00,6.639125061035156250e+01
7.479999542236328125e+00,6.648364257812500000e+01
7.519999980926513672e+00,6.657299804687500000e+01
7.559999942779541016e+00,6.666078948974609375e+01
7.599999904632568359e+00,6.673937988281250000e+01
7.639999866485595703e+00,6.680867004394531250e+01
7.679999828338623047e+00,6.687651062011718750e+01
7.719999790191650391e+00,6.693472290039062500e+01
7.759999752044677734e+00,6.699158477783203125e+01
7.799999713897705078e+00,6.703979492187500000e+01
7.839999675750732422e+00,6.707913970947265625e+01
7.879999637603759766e+00,6.711703491210937500e+01
7.919999599456787109e+00,6.717138671875000000e+01
7.959999561309814453e+00,6.722434997558593750e+01
7.999999523162841797e+00,6.726235961914062500e+01
8.039999961853027344e+00,6.728541564941406250e+01
8.079999923706054688e+00,6.730713653564453125e+01
8.119999885559082031e+00,6.731175231933593750e+01
8.159999847412109375e+00,6.729785156250000000e+01
8.199999809265136719e+00,6.727579498291015625e+01
8.239999771118164062e+00,6.726596832275390625e+01
8.279999732971191406e+00,6.731591796875000000e+01
8.319999694824218750e+00,6.736854553222656250e+01
8.359999656677246094e+00,6.741999816894531250e+01
8.399999618530273438e+00,6.746421813964843750e+01
8.439999580383300781e+00,6.750135803222656250e+01
8.479999542236328125e+00,6.753730773925781250e+01
8.520000457763671875e+00,6.758999633789062500e+01
8.560000419616699219e+00,6.764150238037109375e+01
8.600000381469726562e+00,6.768553924560546875e+01
8.640000343322753906e+00,6.772203826904296875e+01
8.680000305175781250e+00,6.775736999511718750e+01
8.720000267028808594e+00,6.777526092529296875e+01
8.760000228881835938e+00,6.779203033447265625e+01
8.800000190734863281e+00,6.780098724365234375e+01
8.840000152587890625e+00,6.780216979980468750e+01
8.880000114440917969e+00,6.780217742919921875e+01
8.920000076293945312e+00,6.780328369140625000e+01
8.960000038146972656e+00,6.779385375976562500e+01
9.000000000000000000e+00,6.776994323730468750e+01
9.039999961853027344e+00,6.773678588867187500e+01
9.079999923706054688e+00,6.770249938964843750e+01
9.119999885559082031e+00,6.769924926757812500e+01
9.159999847412109375e+00,6.773771667480468750e+01
9.199999809265136719e+00,6.776547241210937500e+01
9.239999771118164062e+00,6.778249359130859375e+01
9.279999732971191406e+00,6.779827880859375000e+01
9.319999694824218750e+00,6.779933166503906250e+01
9.359999656677246094e+00,6.779914855957031250e+01
9.399999618530273438e+00,6.778386688232421875e+01
9.439999580383300781e+00,6.775344085693359375e+01
9.479999542236328125e+00,6.772174835205078125e+01
9.519999504089355469e+00,6.772164916992187500e+01
9.560000419616699219e+00,6.772028350830078125e+01
9.600000381469726562e+00,6.766188812255859375e+01
9.640000343322753906e+00,6.756317901611328125e+01
9.680000305175781250e+00,6.751366424560546875e+01
9.720000267028808594e+00,6.746360778808593750e+01
9.760000228881835938e+00,6.741210937500000000e+01
9.800000190734863281e+00,6.724213409423828125e+01
9.840000152587890625e+00,6.695141601562500000e+01
9.880000114440917969e+00,6.665280151367187500e+01
9.920000076293945312e+00,6.636944580078125000e+01
9.960000038146972656e+00,6.620954895019531250e+01
1.000000000000000000e+01,6.537143707275390625e+01
1.003999996185302734e+01,6.376564788818359375e+01
1.007999992370605469e+01,6.215706634521484375e+01
1.011999988555908203e+01,6.054224395751953125e+01
1.015999984741210938e+01,5.892565155029296875e+01
1.019999980926513672e+01,5.715200805664062500e+01
1.023999977111816406e+01,5.734756469726562500e+01
1.027999973297119141e+01,5.754103851318359375e+01
1.032000064849853516e+01,5.772848510742187500e+01
1.036000061035156250e+01,5.791390609741210938e+01
1.040000057220458984e+01,5.832398223876953125e+01
1.044000053405761719e+01,5.882316589355468750e+01
1.048000049591064453e+01,5.890070343017578125e+01
1.052000045776367188e+01,5.897695922851562500e+01
1.056000041961669922e+01,5.905060577392578125e+01
1.060000038146972656e+01,5.895401000976562500e+01
1.064000034332275391e+01,5.868870925903320312e+01
1.068000030517578125e+01,5.842261123657226562e+01
1.072000026702880859e+01,5.814755630493164062e+01
1.076000022888183594e+01,5.787186431884765625e+01
1.080000019073486328e+01,5.756294250488281250e+01
1.084000015258789062e+01,5.721739196777343750e+01
1.088000011444091797e+01,5.687003707885742188e+01
1.092000007629394531e+01,5.652768707275390625e+01
1.096000003814697266e+01,5.618534851074218750e+01
1.100000000000000000e+01,5.581308746337890625e+01
1.103999996185302734e+01,5.541129302978515625e+01
1.107999992370605469e+01,5.501016235351562500e+01
1.111999988555908203e+01,5.496911621093750000e+01
1.115999984741210938e+01,5.492749023437500000e+01
1.119999980926513672e+01,5.474899673461914062e+01
1.123999977111816406e+01,5.443358612060546875e+01
1.127999973297119141e+01,5.411746215820312500e+01
1.131999969482421875e+01,5.377896118164062500e+01
1.136000061035156250e+01,5.344009399414062500e+01
1.140000057220458984e+01,5.285587310791015625e+01
1.144000053405761719e+01,5.202552413940429688e+01
1.148000049591064453e+01,5.119364929199218750e+01
1.152000045776367188e+01,5.035115051269531250e+01
1.156000041961669922e+01,4.839218521118164062e+01
1.160000038146972656e+01,4.780673980712890625e+01
1.164000034332275391e+01,4.766530609130859375e+01
1.168000030517578125e+01,4.752222442626953125e+01
1.172000026702880859e+01,4.737762451171875000e+01
1.176000022888183594e+01,4.723083496093750000e+01
1.180000019073486328e+01,4.704283905029296875e+01
1.184000015258789062e+01,4.681473541259765625e+01
1.188000011444091797e+01,4.658647918701171875e+01
1.192000007629394531e+01,4.633293914794921875e+01
1.196000003814697266e+01,4.607809829711914062e+01
1.200000000000000000e+01,4.579004669189453125e+01
1.203999996185302734e+01,4.546900939941406250e+01
1.207999992370605469e+01,4.524890136718750000e+01
1.211999988555908203e+01,4.533979797363281250e+01
1.215999984741210938e+01,4.543059921264648438e+01
1.219999980926513672e+01,4.549906158447265625e+01
1.223999977111816406e+01,4.554508972167968750e+01
1.227999973297119141e+01,4.559093475341796875e+01
1.231999969482421875e+01,4.563418197631835938e+01
1.236000061035156250e+01,4.567727661132812500e+01
1.240000057220458984e+01,4.568972015380859375e+01
1.244000053405761719e+01,4.567158508300781250e+01
1.248000049591064453e+01,4.565317535400390625e+01
1.252000045776367188e+01,4.560643005371093750e+01
1.256000041961669922e+01,4.555955505371093750e+01
1.260000038146972656e+01,4.549629974365234375e+01
1.264000034332275391e+01,4.541672897338867188e+01
1.268000030517578125e+01,4.533705139160156250e+01
1.272000026702880859e+01,4.527587890625000000e+01
1.276000022888183594e+01,4.521450042724609375e+01
1.280000019073486328e+01,4.514315032958984375e+01
1.284000015258789062e+01,4.506182098388671875e+01
1.288000011444091797e+01,4.498044204711914062e+01
1.292000007629394531e+01,4.488675689697265625e+01
1.296000003814697266e+01,4.479296112060546875e+01
1.300000000000000000e+01,4.465795898437500000e+01
1.303999996185302734e+01,4.448186111450195312e+01
1.307999992370605469e+01,4.430582809448242188e+01
1.311999988555908203e+01,4.413028717041015625e+01
1.315999984741210938e+01,4.395424652099609375e+01
1.319999980926513672e+01,4.375427627563476562e+01
1.323999977111816406e+01,4.353052902221679688e+01
1.327999973297119141e+01,4.328274917602539062e+01
1.331999969482421875e+01,4.271865463256835938e+01
1.335999965667724609e+01,4.251256561279296875e+01
1.340000057220458984e+01,4.237990570068359375e+01
1.344000053405761719e+01,4.230059051513671875e+01
1.348000049591064453e+01,4.222094726562500000e+01
1.352000045776367188e+01,4.212143325805664062e+01
1.356000041961669922e+01,4.202170944213867188e+01
1.360000038146972656e+01,4.190923309326171875e+01
1.364000034332275391e+01,4.178407287597656250e+01
1.368000030517578125e+01,4.165859985351562500e+01
1.372000026702880859e+01,4.154836273193359375e+01
1.376000022888183594e+01,4.143780517578125000e+01
1.380000019073486328e+01,4.131605148315429688e+01
1.384000015258789062e+01,4.106647109985351562e+01
1.388000011444091797e+01,4.094233322143554688e+01
1.392000007629394531e+01,4.087442779541015625e+01
1.396000003814697266e+01,4.080652236938476562e+01
1.400000000000000000e+01,4.074666595458984375e+01
1.403999996185302734e+01,4.069488143920898438e+01
1.407999992370605469e+01,4.064287948608398438e+01
1.411999988555908203e+01,4.060073471069335938e+01
1.415999984741210938e+01,4.055836868286132812e+01
1.419999980926513672e+01,4.051504898071289062e+01
1.423999977111816406e+01,4.047077178955078125e+01
1.427999973297119141e+01,4.042627716064453125e+01
1.431999969482421875e+01,4.037603759765625000e+01
1.435999965667724609e+01,4.032561874389648438e+01
1.439999961853027344e+01,4.027062225341796875e+01
1.444000053405761719e+01,4.020984649658203125e+01
1.448000049591064453e+01,4.014894485473632812e+01
1.452000045776367188e+01,4.009228134155273438e+01
1.456000041961669922e+01,4.003543472290039062e+01
1.460000038146972656e+01,3.997758102416992188e+01
1.464000034332275391e+01,3.991870117187500000e+01
1.468000030517578125e+01,3.985965728759765625e+01
1.472000026702880859e+01,3.980278778076171875e+01
1.476000022888183594e+01,3.974573516845703125e+01
1.480000019073486328e+01,3.968769836425781250e+01
1.484000015258789062e+01,3.962865447998046875e+01
1.488000011444091797e+01,3.956935882568359375e+01
1.492000007629394531e+01,3.951481628417968750e+01
1.496000003814697266e+01,3.946008682250976562e+01
1.500000000000000000e+01,3.940515899658203125e+01
1.503999996185302734e+01,3.935004043579101562e+01
1.507999992370605469e+01,3.929472732543945312e+01
1.511999988555908203e+01,3.922566223144531250e+01
1.515999984741210938e+01,3.915646743774414062e+01
1.519999980926513672e+01,3.908558273315429688e+01
1.523999977111816406e+01,3.901299667358398438e+01
1.527999973297119141e+01,3.894027328491210938e+01
1.531999969482421875e+01,3.886536407470703125e+01
1.535999965667724609e+01,3.879032516479492188e+01
1.539999961853027344e+01,3.871512603759765625e+01
1.544000053405761719e+01,3.863976669311523438e+01
1.548000049591064453e+01,3.856428909301757812e+01
1.552000045776367188e+01,3.850948715209960938e+01
1.556000041961669922e+01,3.845445251464843750e+01
1.560000038146972656e+01,3.840122985839843750e+01
1.564000034332275391e+01,3.834981536865234375e+01
1.568000030517578125e+01,3.829817962646484375e+01
1.572000026702880859e+01,3.819938278198242188e+01
1.576000022888183594e+01,3.810013198852539062e+01
1.580000019073486328e+01,3.799839782714843750e+01
1.584000015258789062e+01,3.789416503906250000e+01
1.588000011444091797e+01,3.778921890258789062e+01
1.592000007629394531e+01,3.769121170043945312e+01
1.596000003814697266e+01,3.759317016601562500e+01
1.600000000000000000e+01,3.749411392211914062e+01
1.603999900817871094e+01,3.739404296875000000e+01
1.607999992370605469e+01,3.729394149780273438e+01
1.611999893188476562e+01,3.720341491699218750e+01
1.615999984741210938e+01,3.711277770996093750e+01
1.619999885559082031e+01,3.702206420898437500e+01
1.623999977111816406e+01,3.693122100830078125e+01
1.627999877929687500e+01,3.684030532836914062e+01
1.631999969482421875e+01,3.674230194091796875e+01
1.635999870300292969e+01,3.664424514770507812e+01
1.639999961853027344e+01,3.654614257812500000e+01
1.643999862670898438e+01,3.644801330566406250e+01
1.647999954223632812e+01,3.634981536865234375e+01
1.652000045776367188e+01,3.624479675292968750e+01
1.655999946594238281e+01,3.613977813720703125e+01
1.660000038146972656e+01,3.603475952148437500e+01
1.663999938964843750e+01,3.592974090576171875e+01
1.668000030517578125e+01,3.582471084594726562e+01
1.671999931335449219e+01,3.572484207153320312e+01
1.676000022888183594e+01,3.562493896484375000e+01
1.679999923706054688e+01,3.552497863769531250e+01
1.684000015258789062e+01,3.542498779296875000e+01
1.687999916076660156e+01,3.532496643066406250e+01
1.692000007629394531e+01,3.520362854003906250e+01
1.695999908447265625e+01,3.508240127563476562e+01
1.700000000000000000e+01,3.496181106567382812e+01
1.703999900817871094e+01,3.484182739257812500e+01
1.707999992370605469e+01,3.472195434570312500e+01
1.711999893188476562e+01,3.463289642333984375e+01
1.715999984741210938e+01,3.454375076293945312e+01
1.719999885559082031e+01,3.445453643798828125e+01
1.723999977111816406e+01,3.436525726318359375e+01
1.727999877929687500e+01,3.427971267700195312e+01
1.731999969482421875e+01,3.419308090209960938e+01
1.735999870300292969e+01,3.410640335083007812e+01
1.739999961853027344e+01,3.401963043212890625e+01
1.743999862670898438e+01,3.393265533447265625e+01
1.747999954223632812e+01,3.384522628784179688e+01
