# Start of Energy Bin (keV), Effective Area (cm^2)
1.600000023841857910e+00,5.058938264846801758e-01
1.639999985694885254e+00,6.899194717407226562e-01
1.680000066757202148e+00,9.385651350021362305e-01
1.720000028610229492e+00,1.273831844329833984e+00
1.759999990463256836e+00,1.699795961380004883e+00
1.799999952316284180e+00,2.112062931060791016e+00
1.840000033378601074e+00,1.155113458633422852e+00
1.879999995231628418e+00,1.456934452056884766e+00
1.920000076293945312e+00,1.884611606597900391e+00
1.960000038146972656e+00,2.357645034790039062e+00
2.000000000000000000e+00,2.897743225097656250e+00
2.039999961853027344e+00,3.532382011413574219e+00
2.079999923706054688e+00,4.302123069763183594e+00
2.119999885559082031e+00,3.845095872879028320e+00
2.160000085830688477e+00,4.441563606262207031e+00
2.200000047683715820e+00,4.587777614593505859e+00
2.240000009536743164e+00,5.224814891815185547e+00
2.279999971389770508e+00,5.968794345855712891e+00
2.319999933242797852e+00,6.884613037109375000e+00
2.360000133514404297e+00,7.766347885131835938e+00
2.400000095367431641e+00,8.604982376098632812e+00
2.440000057220458984e+00,9.554944992065429688e+00
2.480000019073486328e+00,1.066762256622314453e+01
2.519999980926513672e+00,1.201367473602294922e+01
2.559999942779541016e+00,1.348961639404296875e+01
2.599999904632568359e+00,1.481793117523193359e+01
2.639999866485595703e+00,1.501921653747558594e+01
2.679999828338623047e+00,1.633815383911132812e+01
2.720000028610229492e+00,1.775972747802734375e+01
2.759999990463256836e+00,1.929663085937500000e+01
2.799999952316284180e+00,2.095011138916015625e+01
2.840000152587890625e+00,2.265658187866210938e+01
2.880000114440917969e+00,2.411958694458007812e+01
2.920000076293945312e+00,2.564224052429199219e+01
2.960000038146972656e+00,2.725477027893066406e+01
3.000000000000000000e+00,2.896739196777343750e+01
3.039999961853027344e+00,2.986581802368164062e+01
3.079999923706054688e+00,3.156135940551757812e+01
3.119999885559082031e+00,3.331990051269531250e+01
3.159999847412109375e+00,3.475679779052734375e+01
3.199999809265136719e+00,3.623698425292968750e+01
3.240000009536743164e+00,3.776240921020507812e+01
3.279999971389770508e+00,3.878705978393554688e+01
3.319999933242797852e+00,4.115659713745117188e+01
3.360000133514404297e+00,4.365265655517578125e+01
3.400000095367431641e+00,4.626823043823242188e+01
3.440000057220458984e+00,4.810160827636718750e+01
3.480000019073486328e+00,4.934651184082031250e+01
3.519999980926513672e+00,4.935455322265625000e+01
3.559999942779541016e+00,5.061800765991210938e+01
3.599999904632568359e+00,5.190608215332031250e+01
3.639999866485595703e+00,5.320574188232421875e+01
3.679999828338623047e+00,5.452103424072265625e+01
3.719999790191650391e+00,5.517400360107421875e+01
3.759999752044677734e+00,5.651374053955078125e+01
3.800000190734863281e+00,5.766716003417968750e+01
3.840000152587890625e+00,5.868110275268554688e+01
3.880000114440917969e+00,5.969540786743164062e+01
3.920000076293945312e+00,6.108370208740234375e+01
3.960000038146972656e+00,6.261282348632812500e+01
4.000000000000000000e+00,6.378012847900390625e+01
4.039999961853027344e+00,6.528044891357421875e+01
4.079999923706054688e+00,6.680125427246093750e+01
4.119999885559082031e+00,6.834355163574218750e+01
4.159999847412109375e+00,6.988752746582031250e+01
4.199999809265136719e+00,7.120346069335937500e+01
4.239999771118164062e+00,7.252802276611328125e+01
4.279999732971191406e+00,7.386431884765625000e+01
4.320000171661376953e+00,7.397383117675781250e+01
4.360000133514404297e+00,7.473326110839843750e+01
4.400000095367431641e+00,7.581977844238281250e+01
4.440000057220458984e+00,7.691042327880859375e+01
4.480000019073486328e+00,7.800862121582031250e+01
4.519999980926513672e+00,7.912204742431640625e+01
4.559999942779541016e+00,8.023769378662109375e+01
4.599999904632568359e+00,8.033124542236328125e+01
4.639999866485595703e+00,8.125880432128906250e+01
4.679999828338623047e+00,8.214293670654296875e+01
4.719999790191650391e+00,8.300834655761718750e+01
4.759999752044677734e+00,8.387407684326171875e+01
4.799999713897705078e+00,8.473762512207031250e+01
4.840000152587890625e+00,8.559710693359375000e+01
4.880000114440917969e+00,8.645508575439453125e+01
4.920000076293945312e+00,8.689386749267578125e+01
4.960000038146972656e+00,8.776144409179687500e+01
5.000000000000000000e+00,8.860632324218750000e+01
5.039999961853027344e+00,8.950335693359375000e+01
5.079999923706054688e+00,9.033398437500000000e+01
5.119999885559082031e+00,9.116357421875000000e+01
5.159999847412109375e+00,9.199172210693359375e+01
5.199999809265136719e+00,9.281671142578125000e+01
5.239999771118164062e+00,9.363928985595703125e+01
5.279999732971191406e+00,9.446176147460937500e+01
5.320000171661376953e+00,9.528399658203125000e+01
5.360000133514404297e+00,9.610633087158203125e+01
5.400000095367431641e+00,9.692681884765625000e+01
5.440000057220458984e+00,9.774478912353515625e+01
5.480000019073486328e+00,9.856269836425781250e+01
5.519999980926513672e+00,9.938161468505859375e+01
5.559999942779541016e+00,1.001317138671875000e+02
5.599999904632568359e+00,1.008093109130859375e+02
5.639999866485595703e+00,1.014846038818359375e+02
5.679999828338623047e+00,1.021585235595703125e+02
5.719999790191650391e+00,1.028323593139648438e+02
5.759999752044677734e+00,1.035046844482421875e+02
5.799999713897705078e+00,1.041664505004882812e+02
5.839999675750732422e+00,1.048181762695312500e+02
5.879999637603759766e+00,1.054686508178710938e+02
5.919999599456787109e+00,1.061285476684570312e+02
5.960000038146972656e+00,1.067872467041015625e+02
6.000000000000000000e+00,1.073889694213867188e+02
6.039999961853027344e+00,1.079325256347656250e+02
6.079999923706054688e+00,1.084739456176757812e+02
6.119999885559082031e+00,1.089380798339843750e+02
6.159999847412109375e+00,1.093646392822265625e+02
6.199999809265136719e+00,1.097924499511718750e+02
6.239999771118164062e+00,1.102213592529296875e+02
6.279999732971191406e+00,1.106478118896484375e+02
6.319999694824218750e+00,1.110956420898437500e+02
6.359999656677246094e+00,1.115411529541015625e+02
6.399999618530273438e+00,1.119812164306640625e+02
6.439999580383300781e+00,1.124159469604492188e+02
6.480000019073486328e+00,1.128483734130859375e+02
6.519999980926513672e+00,1.132537231445312500e+02
6.559999942779541016e+00,1.136567535400390625e+02
6.599999904632568359e+00,1.140543594360351562e+02
6.639999866485595703e+00,1.144464416503906250e+02
6.679999828338623047e+00,1.148365097045898438e+02
6.719999790191650391e+00,1.152265625000000000e+02
6.759999752044677734e+00,1.155653686523437500e+02
6.799999713897705078e+00,1.158955841064453125e+02
6.839999675750732422e+00,1.162173461914062500e+02
6.879999637603759766e+00,1.165371475219726562e+02
6.919999599456787109e+00,1.168418579101562500e+02
6.959999561309814453e+00,1.171445465087890625e+02
7.000000000000000000e+00,1.174189147949218750e+02
7.039999961853027344e+00,1.176647644042968750e+02
7.079999923706054688e+00,1.179091339111328125e+02
7.119999885559082031e+00,1.175282592773437500e+02
7.159999847412109375e+00,1.177655487060546875e+02
7.199999809265136719e+00,1.179997253417968750e+02
7.239999771118164062e+00,1.182308044433593750e+02
7.279999732971191406e+00,1.184600067138671875e+02
7.319999694824218750e+00,1.186849975585937500e+02
7.359999656677246094e+00,1.189079742431640625e+02
7.399999618530273438e+00,1.191192474365234375e+02
7.439999580383300781e+00,1.193185729980468750e+02
7.479999542236328125e+00,1.195163497924804688e+02
7.519999980926513672e+00,1.197312698364257812e+02
7.559999942779541016e+00,1.199445190429687500e+02
7.599999904632568359e+00,1.201418762207031250e+02
7.639999866485595703e+00,1.203231887817382812e+02
7.679999828338623047e+00,1.205027313232421875e+02
7.719999790191650391e+00,1.206652984619140625e+02
7.759999752044677734e+00,1.208264160156250000e+02
7.799999713897705078e+00,1.209670257568359375e+02
7.839999675750732422e+00,1.210870056152343750e+02
7.879999637603759766e+00,1.212054290771484375e+02
7.919999599456787109e+00,1.213301239013671875e+02
7.959999561309814453e+00,1.214531402587890625e+02
7.999999523162841797e+00,1.215424194335937500e+02
8.039999961853027344e+00,1.215976715087890625e+02
8.079999923706054688e+00,1.216512908935546875e+02
8.119999885559082031e+00,1.217107086181640625e+02
8.159999847412109375e+00,1.217354812622070312e+02
8.199999809265136719e+00,1.217387695312500000e+02
8.239999771118164062e+00,1.217455902099609375e+02
8.279999732971191406e+00,1.218262939453125000e+02
8.319999694824218750e+00,1.219049606323242188e+02
8.359999656677246094e+00,1.219820861816406250e+02
8.399999618530273438e+00,1.220404891967773438e+02
8.439999580383300781e+00,1.220801467895507812e+02
8.479999542236328125e+00,1.221180419921875000e+02
8.520000457763671875e+00,1.221621170043945312e+02
8.560000419616699219e+00,1.222045593261718750e+02
8.600000381469726562e+00,1.222292785644531250e+02
8.640000343322753906e+00,1.222361602783203125e+02
8.680000305175781250e+00,1.222413177490234375e+02
8.720000267028808594e+00,1.222476043701171875e+02
8.760000228881835938e+00,1.222523956298828125e+02
8.800000190734863281e+00,1.222420196533203125e+02
8.840000152587890625e+00,1.222164001464843750e+02
8.880000114440917969e+00,1.221893005371093750e+02
8.920000076293945312e+00,1.221617050170898438e+02
8.960000038146972656e+00,1.221147613525390625e+02
9.000000000000000000e+00,1.220426864624023438e+02
9.039999961853027344e+00,1.219551696777343750e+02
9.079999923706054688e+00,1.218660736083984375e+02
9.119999885559082031e+00,1.218054428100585938e+02
9.159999847412109375e+00,1.218280639648437500e+02
9.199999809265136719e+00,1.218326873779296875e+02
9.239999771118164062e+00,1.218193359375000000e+02
9.279999732971191406e+00,1.218039703369140625e+02
9.319999694824218750e+00,1.217802734375000000e+02
9.359999656677246094e+00,1.217545547485351562e+02
9.399999618530273438e+00,1.217048873901367188e+02
9.439999580383300781e+00,1.216313323974609375e+02
9.479999542236328125e+00,1.215557708740234375e+02
9.519999504089355469e+00,1.214959716796875000e+02
9.560000419616699219e+00,1.214342651367187500e+02
9.600000381469726562e+00,1.213125915527343750e+02
9.640000343322753906e+00,1.211419830322265625e+02
9.680000305175781250e+00,1.210025329589843750e+02
9.720000267028808594e+00,1.208787078857421875e+02
9.760000228881835938e+00,1.207526245117187500e+02
9.800000190734863281e+00,1.204289703369140625e+02
9.840000152587890625e+00,1.199036407470703125e+02
9.880000114440917969e+00,1.193642349243164062e+02
9.920000076293945312e+00,1.188049163818359375e+02
9.960000038146972656e+00,1.183281555175781250e+02
1.000000000000000000e+01,1.165750122070312500e+02
1.003999996185302734e+01,1.134947509765625000e+02
1.007999992370605469e+01,1.104243011474609375e+02
1.011999988555908203e+01,1.073643798828125000e+02
1.015999984741210938e+01,1.043152847290039062e+02
1.019999980926513672e+01,1.009982299804687500e+02
1.023999977111816406e+01,1.010845794677734375e+02
1.027999973297119141e+01,1.011678466796875000e+02
1.032000064849853516e+01,1.012511901855468750e+02
1.036000061035156250e+01,1.013316574096679688e+02
1.040000057220458984e+01,1.018006744384765625e+02
1.044000053405761719e+01,1.025124511718750000e+02
1.048000049591064453e+01,1.027703399658203125e+02
1.052000045776367188e+01,1.030220031738281250e+02
1.056000041961669922e+01,1.032713012695312500e+02
1.060000038146972656e+01,1.032340621948242188e+02
1.064000034332275391e+01,1.029115447998046875e+02
1.068000030517578125e+01,1.025884552001953125e+02
1.072000026702880859e+01,1.022602920532226562e+02
1.076000022888183594e+01,1.019315795898437500e+02
1.080000019073486328e+01,1.015457611083984375e+02
1.084000015258789062e+01,1.010960845947265625e+02
1.088000011444091797e+01,1.006433181762695312e+02
1.092000007629394531e+01,1.001805572509765625e+02
1.096000003814697266e+01,9.971817779541015625e+01
1.100000000000000000e+01,9.920273590087890625e+01
1.103999996185302734e+01,9.863472747802734375e+01
1.107999992370605469e+01,9.806796264648437500e+01
1.111999988555908203e+01,9.790939331054687500e+01
1.115999984741210938e+01,9.775019073486328125e+01
1.119999980926513672e+01,9.734910583496093750e+01
1.123999977111816406e+01,9.670648193359375000e+01
1.127999973297119141e+01,9.606393432617187500e+01
1.131999969482421875e+01,9.542092895507812500e+01
1.136000061035156250e+01,9.477819824218750000e+01
1.140000057220458984e+01,9.368984222412109375e+01
1.144000053405761719e+01,9.215548706054687500e+01
1.148000049591064453e+01,9.062046813964843750e+01
1.152000045776367188e+01,8.901836395263671875e+01
1.156000041961669922e+01,8.501186370849609375e+01
1.160000038146972656e+01,8.388095092773437500e+01
1.164000034332275391e+01,8.353832244873046875e+01
1.168000030517578125e+01,8.319352722167968750e+01
1.172000026702880859e+01,8.285442352294921875e+01
1.176000022888183594e+01,8.251207733154296875e+01
1.180000019073486328e+01,8.211997985839843750e+01
1.184000015258789062e+01,8.168011474609375000e+01
1.188000011444091797e+01,8.124044036865234375e+01
1.192000007629394531e+01,8.077072143554687500e+01
1.196000003814697266e+01,8.029906463623046875e+01
1.200000000000000000e+01,7.976891326904296875e+01
1.203999996185302734e+01,7.918087768554687500e+01
1.207999992370605469e+01,7.876551818847656250e+01
1.211999988555908203e+01,7.887274169921875000e+01
1.215999984741210938e+01,7.897964477539062500e+01
1.219999980926513672e+01,7.904934692382812500e+01
1.223999977111816406e+01,7.908160400390625000e+01
1.227999973297119141e+01,7.911347961425781250e+01
1.231999969482421875e+01,7.914315795898437500e+01
1.236000061035156250e+01,7.917243194580078125e+01
1.240000057220458984e+01,7.915007019042968750e+01
1.244000053405761719e+01,7.907624053955078125e+01
1.248000049591064453e+01,7.900197601318359375e+01
1.252000045776367188e+01,7.891021728515625000e+01
1.256000041961669922e+01,7.881823730468750000e+01
1.260000038146972656e+01,7.869850158691406250e+01
1.264000034332275391e+01,7.855094909667968750e+01
1.268000030517578125e+01,7.840337371826171875e+01
1.272000026702880859e+01,7.826429748535156250e+01
1.276000022888183594e+01,7.812503051757812500e+01
1.280000019073486328e+01,7.796853637695312500e+01
1.284000015258789062e+01,7.779477691650390625e+01
1.288000011444091797e+01,7.762117004394531250e+01
1.292000007629394531e+01,7.744563293457031250e+01
1.296000003814697266e+01,7.726995849609375000e+01
1.300000000000000000e+01,7.701927185058593750e+01
1.303999996185302734e+01,7.669384765625000000e+01
1.307999992370605469e+01,7.636874389648437500e+01
1.311999988555908203e+01,7.603599548339843750e+01
1.315999984741210938e+01,7.570264434814453125e+01
1.319999980926513672e+01,7.532749176025390625e+01
1.323999977111816406e+01,7.491107177734375000e+01
1.327999973297119141e+01,7.446883392333984375e+01
1.331999969482421875e+01,7.331956481933593750e+01
1.335999965667724609e+01,7.292209625244140625e+01
1.340000057220458984e+01,7.264744567871093750e+01
1.344000053405761719e+01,7.246282196044921875e+01
1.348000049591064453e+01,7.227785491943359375e+01
1.352000045776367188e+01,7.209405517578125000e+01
1.356000041961669922e+01,7.191007232666015625e+01
1.360000038146972656e+01,7.170233154296875000e+01
1.364000034332275391e+01,7.147094726562500000e+01
1.368000030517578125e+01,7.123918151855468750e+01
1.372000026702880859e+01,7.101461029052734375e+01
1.376000022888183594e+01,7.078976440429687500e+01
1.380000019073486328e+01,7.054636383056640625e+01
1.384000015258789062e+01,7.003033447265625000e+01
1.388000011444091797e+01,6.976594543457031250e+01
1.392000007629394531e+01,6.962232971191406250e+01
1.396000003814697266e+01,6.947907257080078125e+01
1.400000000000000000e+01,6.934880828857421875e+01
1.403999996185302734e+01,6.923170471191406250e+01
1.407999992370605469e+01,6.911439514160156250e+01
1.411999988555908203e+01,6.899642944335937500e+01
1.415999984741210938e+01,6.887820434570312500e+01
1.419999980926513672e+01,6.875793457031250000e+01
1.423999977111816406e+01,6.863549804687500000e+01
1.427999973297119141e+01,6.851280212402343750e+01
1.431999969482421875e+01,6.838697814941406250e+01
1.435999965667724609e+01,6.826097106933593750e+01
1.439999961853027344e+01,6.812728118896484375e+01
1.444000053405761719e+01,6.798376464843750000e+01
1.448000049591064453e+01,6.784020233154296875e+01
1.452000045776367188e+01,6.771445465087890625e+01
1.456000041961669922e+01,6.758848571777343750e+01
1.460000038146972656e+01,6.746092987060546875e+01
1.464000034332275391e+01,6.733184814453125000e+01
1.468000030517578125e+01,6.720260620117187500e+01
1.472000026702880859e+01,6.706121826171875000e+01
1.476000022888183594e+01,6.691970825195312500e+01
1.480000019073486328e+01,6.677692413330078125e+01
1.484000015258789062e+01,6.663281250000000000e+01
1.488000011444091797e+01,6.648846435546875000e+01
1.492000007629394531e+01,6.634315490722656250e+01
1.496000003814697266e+01,6.619773864746093750e+01
1.500000000000000000e+01,6.605256652832031250e+01
1.503999996185302734e+01,6.590760040283203125e+01
1.507999992370605469e+01,6.576249694824218750e+01
1.511999988555908203e+01,6.562666320800781250e+01
1.515999984741210938e+01,6.549072265625000000e+01
1.519999980926513672e+01,6.535249328613281250e+01
1.523999977111816406e+01,6.521192932128906250e+01
1.527999973297119141e+01,6.507118988037109375e+01
1.531999969482421875e+01,6.492021179199218750e+01
1.535999965667724609e+01,6.476901245117187500e+01
1.539999961853027344e+01,6.461816406250000000e+01
1.544000053405761719e+01,6.446756744384765625e+01
1.548000049591064453e+01,6.431682586669921875e+01
1.552000045776367188e+01,6.417618560791015625e+01
1.556000041961669922e+01,6.403533935546875000e+01
1.560000038146972656e+01,6.389815902709960938e+01
1.564000034332275391e+01,6.376456451416015625e+01
1.568000030517578125e+01,6.363068389892578125e+01
1.572000026702880859e+01,6.348914337158203125e+01
1.576000022888183594e+01,6.334738922119140625e+01
1.580000019073486328e+01,6.320170593261718750e+01
1.584000015258789062e+01,6.305201721191406250e+01
1.588000011444091797e+01,6.290087890625000000e+01
1.592000007629394531e+01,6.275638580322265625e+01
1.596000003814697266e+01,6.261179351806640625e+01
1.600000000000000000e+01,6.246522140502929688e+01
1.603999900817871094e+01,6.231679534912109375e+01
1.607999992370605469e+01,6.216816711425781250e+01
1.611999893188476562e+01,6.202916717529296875e+01
1.615999984741210938e+01,6.188988494873046875e+01
1.619999885559082031e+01,6.175043106079101562e+01
1.623999977111816406e+01,6.161071777343750000e+01
1.627999877929687500e+01,6.147081756591796875e+01
1.631999969482421875e+01,6.132554244995117188e+01
1.635999870300292969e+01,6.118010330200195312e+01
1.639999961853027344e+01,6.103444671630859375e+01
1.643999862670898438e+01,6.088862609863281250e+01
1.647999954223632812e+01,6.074263381958007812e+01
1.652000045776367188e+01,6.058555984497070312e+01
1.655999946594238281e+01,6.042840957641601562e+01
1.660000038146972656e+01,6.027108764648437500e+01
1.663999938964843750e+01,6.011368560791015625e+01
1.668000030517578125e+01,5.995618820190429688e+01
1.671999931335449219e+01,5.980304336547851562e+01
1.676000022888183594e+01,5.964970397949218750e+01
1.679999923706054688e+01,5.949621582031250000e+01
1.684000015258789062e+01,5.934266662597656250e+01
1.687999916076660156e+01,5.918888092041015625e+01
1.692000007629394531e+01,5.902713394165039062e+01
1.695999908447265625e+01,5.886527252197265625e+01
1.700000000000000000e+01,5.870199966430664062e+01
1.703999900817871094e+01,5.853736114501953125e+01
1.707999992370605469e+01,5.837266921997070312e+01
1.711999893188476562e+01,5.823376846313476562e+01
1.715999984741210938e+01,5.809466552734375000e+01
1.719999885559082031e+01,5.795545196533203125e+01
1.723999977111816406e+01,5.781611251831054688e+01
1.727999877929687500e+01,5.764943313598632812e+01
1.731999969482421875e+01,5.745417022705078125e+01
1.735999870300292969e+01,5.725912475585937500e+01
1.739999961853027344e+01,5.706426239013671875e+01
1.743999862670898438e+01,5.686933135986328125e+01
1.747999954223632812e+01,5.667394638061523438e+01
