# Start of Energy Bin (keV), Effective Area (cm^2)
1.600000023841857910e+00,7.234237194061279297e-01
1.639999985694885254e+00,1.007134675979614258e+00
1.680000066757202148e+00,1.396882891654968262e+00
1.720000028610229492e+00,1.930694460868835449e+00
1.759999990463256836e+00,2.621012926101684570e+00
1.799999952316284180e+00,3.315299987792968750e+00
1.840000033378601074e+00,1.845948934555053711e+00
1.879999995231628418e+00,2.358118295669555664e+00
1.920000076293945312e+00,3.073659420013427734e+00
1.960000038146972656e+00,3.872018098831176758e+00
2.000000000000000000e+00,4.786487102508544922e+00
2.039999961853027344e+00,5.861411571502685547e+00
2.079999923706054688e+00,7.167367935180664062e+00
2.119999885559082031e+00,6.524234294891357422e+00
2.160000085830688477e+00,7.579496860504150391e+00
2.200000047683715820e+00,7.910457134246826172e+00
2.240000009536743164e+00,9.063674926757812500e+00
2.279999971389770508e+00,1.041331195831298828e+01
2.319999933242797852e+00,1.206974411010742188e+01
2.360000133514404297e+00,1.367863750457763672e+01
2.400000095367431641e+00,1.522230243682861328e+01
2.440000057220458984e+00,1.697100067138671875e+01
2.480000019073486328e+00,1.901450729370117188e+01
2.519999980926513672e+00,2.147576713562011719e+01
2.559999942779541016e+00,2.418216514587402344e+01
2.599999904632568359e+00,2.663818740844726562e+01
2.639999866485595703e+00,2.715546417236328125e+01
2.679999828338623047e+00,2.962027359008789062e+01
2.720000028610229492e+00,3.227613067626953125e+01
2.759999990463256836e+00,3.514971160888671875e+01
2.799999952316284180e+00,3.824591064453125000e+01
2.840000152587890625e+00,4.144480514526367188e+01
2.880000114440917969e+00,4.420317077636718750e+01
2.920000076293945312e+00,4.709147644042968750e+01
2.960000038146972656e+00,5.015145111083984375e+01
3.000000000000000000e+00,5.353922653198242188e+01
3.039999961853027344e+00,5.564970397949218750e+01
3.079999923706054688e+00,5.921797943115234375e+01
3.119999885559082031e+00,6.293432617187500000e+01
3.159999847412109375e+00,6.608003234863281250e+01
3.199999809265136719e+00,6.934113311767578125e+01
3.240000009536743164e+00,7.272310638427734375e+01
3.279999971389770508e+00,7.521820831298828125e+01
3.319999933242797852e+00,7.886407470703125000e+01
3.360000133514404297e+00,8.265544891357421875e+01
3.400000095367431641e+00,8.659008789062500000e+01
3.440000057220458984e+00,8.994615936279296875e+01
3.480000019073486328e+00,9.252416229248046875e+01
3.519999980926513672e+00,8.925226593017578125e+01
3.559999942779541016e+00,9.181600189208984375e+01
3.599999904632568359e+00,9.447918701171875000e+01
3.639999866485595703e+00,9.718388366699218750e+01
3.679999828338623047e+00,9.993387603759765625e+01
3.719999790191650391e+00,9.963696289062500000e+01
3.759999752044677734e+00,1.024761199951171875e+02
3.800000190734863281e+00,1.049764251708984375e+02
3.840000152587890625e+00,1.072430953979492188e+02
3.880000114440917969e+00,1.095208129882812500e+02
3.920000076293945312e+00,1.122596130371093750e+02
3.960000038146972656e+00,1.151803894042968750e+02
4.000000000000000000e+00,1.164502487182617188e+02
4.039999961853027344e+00,1.193090057373046875e+02
4.079999923706054688e+00,1.222019195556640625e+02
4.119999885559082031e+00,1.251296844482421875e+02
4.159999847412109375e+00,1.280586395263671875e+02
4.199999809265136719e+00,1.305679321289062500e+02
4.239999771118164062e+00,1.330914001464843750e+02
4.279999732971191406e+00,1.356356353759765625e+02
4.320000171661376953e+00,1.324940032958984375e+02
4.360000133514404297e+00,1.330464019775390625e+02
4.400000095367431641e+00,1.353032226562500000e+02
4.440000057220458984e+00,1.375756835937500000e+02
4.480000019073486328e+00,1.398759307861328125e+02
4.519999980926513672e+00,1.421943206787109375e+02
4.559999942779541016e+00,1.445117187500000000e+02
4.599999904632568359e+00,1.425857543945312500e+02
4.639999866485595703e+00,1.446963653564453125e+02
4.679999828338623047e+00,1.466091003417968750e+02
4.719999790191650391e+00,1.485226745605468750e+02
4.759999752044677734e+00,1.504384918212890625e+02
4.799999713897705078e+00,1.523568725585937500e+02
4.840000152587890625e+00,1.542679901123046875e+02
4.880000114440917969e+00,1.561769714355468750e+02
4.920000076293945312e+00,1.561194000244140625e+02
4.960000038146972656e+00,1.580236511230468750e+02
5.000000000000000000e+00,1.598870391845703125e+02
5.039999961853027344e+00,1.618405303955078125e+02
5.079999923706054688e+00,1.636695861816406250e+02
5.119999885559082031e+00,1.655049438476562500e+02
5.159999847412109375e+00,1.673367309570312500e+02
5.199999809265136719e+00,1.691628723144531250e+02
5.239999771118164062e+00,1.709850006103515625e+02
5.279999732971191406e+00,1.728079681396484375e+02
5.320000171661376953e+00,1.746254425048828125e+02
5.360000133514404297e+00,1.764435729980468750e+02
5.400000095367431641e+00,1.782589721679687500e+02
5.440000057220458984e+00,1.800697784423828125e+02
5.480000019073486328e+00,1.818796234130859375e+02
5.519999980926513672e+00,1.836886901855468750e+02
5.559999942779541016e+00,1.853699951171875000e+02
5.599999904632568359e+00,1.869163970947265625e+02
5.639999866485595703e+00,1.884578552246093750e+02
5.679999828338623047e+00,1.899956665039062500e+02
5.719999790191650391e+00,1.915307922363281250e+02
5.759999752044677734e+00,1.930624084472656250e+02
5.799999713897705078e+00,1.945751647949218750e+02
5.839999675750732422e+00,1.960701751708984375e+02
5.879999637603759766e+00,1.975614013671875000e+02
5.919999599456787109e+00,1.990490722656250000e+02
5.960000038146972656e+00,2.005328674316406250e+02
6.000000000000000000e+00,2.019001464843750000e+02
6.039999961853027344e+00,2.031483459472656250e+02
6.079999923706054688e+00,2.043906860351562500e+02
6.119999885559082031e+00,2.055286560058593750e+02
6.159999847412109375e+00,2.065938873291015625e+02
6.199999809265136719e+00,2.076602783203125000e+02
6.239999771118164062e+00,2.087285308837890625e+02
6.279999732971191406e+00,2.097906494140625000e+02
6.319999694824218750e+00,2.108469696044921875e+02
6.359999656677246094e+00,2.118970642089843750e+02
6.399999618530273438e+00,2.129369201660156250e+02
6.439999580383300781e+00,2.139667053222656250e+02
6.480000019073486328e+00,2.149907989501953125e+02
6.519999980926513672e+00,2.160093383789062500e+02
6.559999942779541016e+00,2.170224761962890625e+02
6.599999904632568359e+00,2.180263061523437500e+02
6.639999866485595703e+00,2.190209350585937500e+02
6.679999828338623047e+00,2.200103912353515625e+02
6.719999790191650391e+00,2.209494781494140625e+02
6.759999752044677734e+00,2.217884216308593750e+02
6.799999713897705078e+00,2.226134490966796875e+02
6.839999675750732422e+00,2.234249420166015625e+02
6.879999637603759766e+00,2.242310180664062500e+02
6.919999599456787109e+00,2.250319671630859375e+02
6.959999561309814453e+00,2.258277130126953125e+02
7.000000000000000000e+00,2.265625305175781250e+02
7.039999961853027344e+00,2.272358398437500000e+02
7.079999923706054688e+00,2.279050598144531250e+02
7.119999885559082031e+00,2.273597259521484375e+02
7.159999847412109375e+00,2.280076141357421875e+02
7.199999809265136719e+00,2.286654968261718750e+02
7.239999771118164062e+00,2.293343811035156250e+02
7.279999732971191406e+00,2.299983978271484375e+02
7.319999694824218750e+00,2.306573791503906250e+02
7.359999656677246094e+00,2.313115844726562500e+02
7.399999618530273438e+00,2.319529724121093750e+02
7.439999580383300781e+00,2.325816802978515625e+02
7.479999542236328125e+00,2.332061004638671875e+02
7.519999980926513672e+00,2.338260192871093750e+02
7.559999942779541016e+00,2.344415740966796875e+02
7.599999904632568359e+00,2.350470581054687500e+02
7.639999866485595703e+00,2.356421508789062500e+02
7.679999828338623047e+00,2.362333984375000000e+02
7.719999790191650391e+00,2.368207244873046875e+02
7.759999752044677734e+00,2.374046478271484375e+02
7.799999713897705078e+00,2.379797973632812500e+02
7.839999675750732422e+00,2.385456390380859375e+02
7.879999637603759766e+00,2.391078338623046875e+02
7.919999599456787109e+00,2.396668090820312500e+02
7.959999561309814453e+00,2.402221527099609375e+02
7.999999523162841797e+00,2.407577056884765625e+02
8.039999961853027344e+00,2.412737274169921875e+02
8.079999923706054688e+00,2.417864532470703125e+02
8.119999885559082031e+00,2.422955017089843750e+02
8.159999847412109375e+00,2.427358856201171875e+02
8.199999809265136719e+00,2.431637115478515625e+02
8.239999771118164062e+00,2.435905303955078125e+02
8.279999732971191406e+00,2.440480194091796875e+02
8.319999694824218750e+00,2.445035247802734375e+02
8.359999656677246094e+00,2.449560546875000000e+02
8.399999618530273438e+00,2.453930969238281250e+02
8.439999580383300781e+00,2.458152923583984375e+02
8.479999542236328125e+00,2.462344970703125000e+02
8.520000457763671875e+00,2.466503906250000000e+02
8.560000419616699219e+00,2.470633697509765625e+02
8.600000381469726562e+00,2.474542388916015625e+02
8.640000343322753906e+00,2.478227081298828125e+02
8.680000305175781250e+00,2.481883697509765625e+02
8.720000267028808594e+00,2.485510559082031250e+02
8.760000228881835938e+00,2.489110412597656250e+02
8.800000190734863281e+00,2.492405242919921875e+02
8.840000152587890625e+00,2.495394592285156250e+02
8.880000114440917969e+00,2.498355102539062500e+02
8.920000076293945312e+00,2.501301879882812500e+02
8.960000038146972656e+00,2.503857574462890625e+02
9.000000000000000000e+00,2.505785217285156250e+02
9.039999961853027344e+00,2.507285766601562500e+02
9.079999923706054688e+00,2.508757324218750000e+02
9.119999885559082031e+00,2.510289916992187500e+02
9.159999847412109375e+00,2.512255401611328125e+02
9.199999809265136719e+00,2.513664245605468750e+02
9.239999771118164062e+00,2.514513702392578125e+02
9.279999732971191406e+00,2.515334472656250000e+02
9.319999694824218750e+00,2.516226196289062500e+02
9.359999656677246094e+00,2.517088623046875000e+02
9.399999618530273438e+00,2.517255096435546875e+02
9.439999580383300781e+00,2.516724395751953125e+02
9.479999542236328125e+00,2.516164398193359375e+02
9.519999504089355469e+00,2.515486755371093750e+02
9.560000419616699219e+00,2.514782714843750000e+02
9.600000381469726562e+00,2.512048339843750000e+02
9.640000343322753906e+00,2.507866668701171875e+02
9.680000305175781250e+00,2.505411529541015625e+02
9.720000267028808594e+00,2.502996368408203125e+02
9.760000228881835938e+00,2.500551452636718750e+02
9.800000190734863281e+00,2.494779205322265625e+02
9.840000152587890625e+00,2.485603179931640625e+02
9.880000114440917969e+00,2.476160278320312500e+02
9.920000076293945312e+00,2.466724700927734375e+02
9.960000038146972656e+00,2.461381072998046875e+02
1.000000000000000000e+01,2.433035583496093750e+02
1.003999996185302734e+01,2.378618927001953125e+02
1.007999992370605469e+01,2.323978424072265625e+02
1.011999988555908203e+01,2.269114685058593750e+02
1.015999984741210938e+01,2.214039306640625000e+02
1.019999980926513672e+01,2.153059692382812500e+02
1.023999977111816406e+01,2.154764556884765625e+02
1.027999973297119141e+01,2.156392669677734375e+02
1.032000064849853516e+01,2.157940979003906250e+02
1.036000061035156250e+01,2.159416656494140625e+02
1.040000057220458984e+01,2.168742523193359375e+02
1.044000053405761719e+01,2.182836608886718750e+02
1.048000049591064453e+01,2.187349853515625000e+02
1.052000045776367188e+01,2.191820373535156250e+02
1.056000041961669922e+01,2.196249237060546875e+02
1.060000038146972656e+01,2.195851898193359375e+02
1.064000034332275391e+01,2.190655975341796875e+02
1.068000030517578125e+01,2.185445709228515625e+02
1.072000026702880859e+01,2.180218200683593750e+02
1.076000022888183594e+01,2.174979095458984375e+02
1.080000019073486328e+01,2.168799438476562500e+02
1.084000015258789062e+01,2.161533203125000000e+02
1.088000011444091797e+01,2.154190368652343750e+02
1.092000007629394531e+01,2.146763153076171875e+02
1.096000003814697266e+01,2.139335479736328125e+02
1.100000000000000000e+01,2.131037902832031250e+02
1.103999996185302734e+01,2.121872253417968750e+02
1.107999992370605469e+01,2.112714233398437500e+02
1.111999988555908203e+01,2.111700592041015625e+02
1.115999984741210938e+01,2.110665588378906250e+02
1.119999980926513672e+01,2.105507659912109375e+02
1.123999977111816406e+01,2.096207580566406250e+02
1.127999973297119141e+01,2.086859741210937500e+02
1.131999969482421875e+01,2.077470092773437500e+02
1.136000061035156250e+01,2.068034973144531250e+02
1.140000057220458984e+01,2.048238677978515625e+02
1.144000053405761719e+01,2.018028259277343750e+02
1.148000049591064453e+01,1.987696533203125000e+02
1.152000045776367188e+01,1.955481109619140625e+02
1.156000041961669922e+01,1.869907684326171875e+02
1.160000038146972656e+01,1.845521697998046875e+02
1.164000034332275391e+01,1.838527526855468750e+02
1.168000030517578125e+01,1.831479644775390625e+02
1.172000026702880859e+01,1.824185943603515625e+02
1.176000022888183594e+01,1.816815643310546875e+02
1.180000019073486328e+01,1.809038848876953125e+02
1.184000015258789062e+01,1.800887145996093750e+02
1.188000011444091797e+01,1.792727203369140625e+02
1.192000007629394531e+01,1.784591522216796875e+02
1.196000003814697266e+01,1.776389160156250000e+02
1.200000000000000000e+01,1.766921539306640625e+02
1.203999996185302734e+01,1.756193695068359375e+02
1.207999992370605469e+01,1.748557739257812500e+02
1.211999988555908203e+01,1.749970703125000000e+02
1.215999984741210938e+01,1.751375427246093750e+02
1.219999980926513672e+01,1.752282257080078125e+02
1.223999977111816406e+01,1.752688903808593750e+02
1.227999973297119141e+01,1.753086242675781250e+02
1.231999969482421875e+01,1.753480529785156250e+02
1.236000061035156250e+01,1.753866577148437500e+02
1.240000057220458984e+01,1.753364410400390625e+02
1.244000053405761719e+01,1.751978759765625000e+02
1.248000049591064453e+01,1.750583038330078125e+02
1.252000045776367188e+01,1.749120025634765625e+02
1.256000041961669922e+01,1.747650604248046875e+02
1.260000038146972656e+01,1.745625610351562500e+02
1.264000034332275391e+01,1.743046722412109375e+02
1.268000030517578125e+01,1.740461883544921875e+02
1.272000026702880859e+01,1.737794647216796875e+02
1.276000022888183594e+01,1.735119934082031250e+02
1.280000019073486328e+01,1.732069091796875000e+02
1.284000015258789062e+01,1.728642120361328125e+02
1.288000011444091797e+01,1.725215759277343750e+02
1.292000007629394531e+01,1.721916351318359375e+02
1.296000003814697266e+01,1.718611145019531250e+02
1.300000000000000000e+01,1.713542633056640625e+02
1.303999996185302734e+01,1.706714477539062500e+02
1.307999992370605469e+01,1.699890289306640625e+02
1.311999988555908203e+01,1.693005523681640625e+02
1.315999984741210938e+01,1.686101989746093750e+02
1.319999980926513672e+01,1.678178710937500000e+02
1.323999977111816406e+01,1.669245147705078125e+02
1.327999973297119141e+01,1.658468017578125000e+02
1.331999969482421875e+01,1.632505493164062500e+02
1.335999965667724609e+01,1.622135314941406250e+02
1.340000057220458984e+01,1.614794921875000000e+02
1.344000053405761719e+01,1.609917602539062500e+02
1.348000049591064453e+01,1.605037689208984375e+02
1.352000045776367188e+01,1.600353240966796875e+02
1.356000041961669922e+01,1.595667572021484375e+02
1.360000038146972656e+01,1.590477294921875000e+02
1.364000034332275391e+01,1.584787750244140625e+02
1.368000030517578125e+01,1.579092559814453125e+02
1.372000026702880859e+01,1.573153381347656250e+02
1.376000022888183594e+01,1.567214355468750000e+02
1.380000019073486328e+01,1.560777587890625000e+02
1.384000015258789062e+01,1.548476104736328125e+02
1.388000011444091797e+01,1.541710052490234375e+02
1.392000007629394531e+01,1.537829284667968750e+02
1.396000003814697266e+01,1.533956909179687500e+02
1.400000000000000000e+01,1.530455017089843750e+02
1.403999996185302734e+01,1.527323455810546875e+02
1.407999992370605469e+01,1.524188537597656250e+02
1.411999988555908203e+01,1.521166839599609375e+02
1.415999984741210938e+01,1.518141784667968750e+02
1.419999980926513672e+01,1.515094146728515625e+02
1.423999977111816406e+01,1.512023925781250000e+02
1.427999973297119141e+01,1.508950500488281250e+02
1.431999969482421875e+01,1.505637512207031250e+02
1.435999965667724609e+01,1.502323303222656250e+02
1.439999961853027344e+01,1.498839416503906250e+02
1.444000053405761719e+01,1.495139007568359375e+02
1.448000049591064453e+01,1.491441192626953125e+02
1.452000045776367188e+01,1.487855529785156250e+02
1.456000041961669922e+01,1.484268646240234375e+02
1.460000038146972656e+01,1.480639648437500000e+02
1.464000034332275391e+01,1.476967010498046875e+02
1.468000030517578125e+01,1.473294525146484375e+02
1.472000026702880859e+01,1.469850158691406250e+02
1.476000022888183594e+01,1.466404418945312500e+02
1.480000019073486328e+01,1.462937011718750000e+02
1.484000015258789062e+01,1.459447021484375000e+02
1.488000011444091797e+01,1.455952606201171875e+02
1.492000007629394531e+01,1.452117004394531250e+02
1.496000003814697266e+01,1.448281707763671875e+02
1.500000000000000000e+01,1.444438323974609375e+02
1.503999996185302734e+01,1.440585784912109375e+02
1.507999992370605469e+01,1.436733245849609375e+02
1.511999988555908203e+01,1.433113403320312500e+02
1.515999984741210938e+01,1.429493255615234375e+02
1.519999980926513672e+01,1.425838928222656250e+02
1.523999977111816406e+01,1.422150878906250000e+02
1.527999973297119141e+01,1.418461608886718750e+02
1.531999969482421875e+01,1.414663085937500000e+02
1.535999965667724609e+01,1.410864105224609375e+02
1.539999961853027344e+01,1.407073822021484375e+02
1.544000053405761719e+01,1.403292083740234375e+02
1.548000049591064453e+01,1.399509887695312500e+02
1.552000045776367188e+01,1.395724639892578125e+02
1.556000041961669922e+01,1.391938323974609375e+02
1.560000038146972656e+01,1.388233947753906250e+02
1.564000034332275391e+01,1.384611206054687500e+02
1.568000030517578125e+01,1.380986938476562500e+02
1.572000026702880859e+01,1.377830200195312500e+02
1.576000022888183594e+01,1.374677581787109375e+02
1.580000019073486328e+01,1.371455078125000000e+02
1.584000015258789062e+01,1.368161926269531250e+02
1.588000011444091797e+01,1.364838256835937500e+02
1.592000007629394531e+01,1.361602783203125000e+02
1.596000003814697266e+01,1.358363342285156250e+02
1.600000000000000000e+01,1.355138702392578125e+02
1.603999900817871094e+01,1.351928558349609375e+02
1.607999992370605469e+01,1.348714447021484375e+02
1.611999893188476562e+01,1.345449981689453125e+02
1.615999984741210938e+01,1.342181396484375000e+02
1.619999885559082031e+01,1.338909301757812500e+02
1.623999977111816406e+01,1.335633239746093750e+02
1.627999877929687500e+01,1.332353820800781250e+02
1.631999969482421875e+01,1.329075012207031250e+02
1.635999870300292969e+01,1.325793151855468750e+02
1.639999961853027344e+01,1.322507629394531250e+02
1.643999862670898438e+01,1.319219512939453125e+02
1.647999954223632812e+01,1.315926513671875000e+02
1.652000045776367188e+01,1.312702789306640625e+02
1.655999946594238281e+01,1.309476013183593750e+02
1.660000038146972656e+01,1.306246032714843750e+02
1.663999938964843750e+01,1.303012542724609375e+02
1.668000030517578125e+01,1.299775848388671875e+02
1.671999931335449219e+01,1.296578979492187500e+02
1.676000022888183594e+01,1.293377990722656250e+02
1.679999923706054688e+01,1.290173645019531250e+02
1.684000015258789062e+01,1.286965637207031250e+02
1.687999916076660156e+01,1.283754425048828125e+02
1.692000007629394531e+01,1.280504913330078125e+02
1.695999908447265625e+01,1.277252578735351562e+02
1.700000000000000000e+01,1.274087524414062500e+02
1.703999900817871094e+01,1.271008682250976562e+02
1.707999992370605469e+01,1.267927551269531250e+02
1.711999893188476562e+01,1.264839019775390625e+02
1.715999984741210938e+01,1.261748275756835938e+02
1.719999885559082031e+01,1.258656158447265625e+02
1.723999977111816406e+01,1.255562362670898438e+02
1.727999877929687500e+01,1.252252883911132812e+02
1.731999969482421875e+01,1.248869400024414062e+02
1.735999870300292969e+01,1.245486526489257812e+02
1.739999961853027344e+01,1.242102813720703125e+02
1.743999862670898438e+01,1.238713989257812500e+02
1.747999954223632812e+01,1.235310974121093750e+02
