# Start of Energy Bin (keV), Effective Area (cm^2)
1.600000023841857910e+00,9.252903461456298828e-01
1.639999985694885254e+00,1.277464389801025391e+00
1.680000066757202148e+00,1.758475661277770996e+00
1.720000028610229492e+00,2.413854598999023438e+00
1.759999990463256836e+00,3.256515979766845703e+00
1.799999952316284180e+00,4.097645759582519531e+00
1.840000033378601074e+00,2.271456241607666016e+00
1.879999995231628418e+00,2.886611938476562500e+00
1.920000076293945312e+00,3.739727020263671875e+00
1.960000038146972656e+00,4.684313297271728516e+00
2.000000000000000000e+00,5.758662223815917969e+00
2.039999961853027344e+00,7.014110088348388672e+00
2.079999923706054688e+00,8.533597946166992188e+00
2.119999885559082031e+00,7.683905124664306641e+00
2.160000085830688477e+00,8.895565986633300781e+00
2.200000047683715820e+00,9.231945037841796875e+00
2.240000009536743164e+00,1.054424953460693359e+01
2.279999971389770508e+00,1.207795333862304688e+01
2.319999933242797852e+00,1.395710945129394531e+01
2.360000133514404297e+00,1.577217483520507812e+01
2.400000095367431641e+00,1.750488662719726562e+01
2.440000057220458984e+00,1.946799087524414062e+01
2.480000019073486328e+00,2.176413345336914062e+01
2.519999980926513672e+00,2.453498077392578125e+01
2.559999942779541016e+00,2.757874298095703125e+01
2.599999904632568359e+00,3.033145904541015625e+01
2.639999866485595703e+00,3.082674980163574219e+01
2.679999828338623047e+00,3.357943725585937500e+01
2.720000028610229492e+00,3.654353332519531250e+01
2.759999990463256836e+00,3.974916458129882812e+01
2.799999952316284180e+00,4.320109558105468750e+01
2.840000152587890625e+00,4.676231765747070312e+01
2.880000114440917969e+00,4.982123565673828125e+01
2.920000076293945312e+00,5.302214813232421875e+01
2.960000038146972656e+00,5.641265869140625000e+01
3.000000000000000000e+00,6.024077987670898438e+01
3.039999961853027344e+00,6.266876602172851562e+01
3.079999923706054688e+00,6.678181457519531250e+01
3.119999885559082031e+00,7.107419586181640625e+01
3.159999847412109375e+00,7.473406982421875000e+01
3.199999809265136719e+00,7.853569793701171875e+01
3.240000009536743164e+00,8.248565673828125000e+01
3.279999971389770508e+00,8.541560363769531250e+01
3.319999933242797852e+00,8.900774383544921875e+01
3.360000133514404297e+00,9.271253967285156250e+01
3.400000095367431641e+00,9.653278350830078125e+01
3.440000057220458984e+00,1.001340942382812500e+02
3.480000019073486328e+00,1.030238342285156250e+02
3.519999980926513672e+00,1.013150634765625000e+02
3.559999942779541016e+00,1.042229232788085938e+02
3.599999904632568359e+00,1.072222595214843750e+02
3.639999866485595703e+00,1.102669906616210938e+02
3.679999828338623047e+00,1.133637466430664062e+02
3.719999790191650391e+00,1.140523376464843750e+02
3.759999752044677734e+00,1.172551422119140625e+02
3.800000190734863281e+00,1.200817565917968750e+02
3.840000152587890625e+00,1.226395950317382812e+02
3.880000114440917969e+00,1.252135620117187500e+02
3.920000076293945312e+00,1.282073974609375000e+02
3.960000038146972656e+00,1.313704833984375000e+02
4.000000000000000000e+00,1.332045898437500000e+02
4.039999961853027344e+00,1.362940673828125000e+02
4.079999923706054688e+00,1.394197692871093750e+02
4.119999885559082031e+00,1.425824432373046875e+02
4.159999847412109375e+00,1.457428131103515625e+02
4.199999809265136719e+00,1.484226531982421875e+02
4.239999771118164062e+00,1.511160278320312500e+02
4.279999732971191406e+00,1.538295288085937500e+02
4.320000171661376953e+00,1.520211181640625000e+02
4.360000133514404297e+00,1.531261291503906250e+02
4.400000095367431641e+00,1.555881500244140625e+02
4.440000057220458984e+00,1.580653533935546875e+02
4.480000019073486328e+00,1.605679016113281250e+02
4.519999980926513672e+00,1.630883483886718750e+02
4.559999942779541016e+00,1.656119384765625000e+02
4.599999904632568359e+00,1.646501617431640625e+02
4.639999866485595703e+00,1.668637695312500000e+02
4.679999828338623047e+00,1.689202880859375000e+02
4.719999790191650391e+00,1.709788665771484375e+02
4.759999752044677734e+00,1.730406799316406250e+02
4.799999713897705078e+00,1.751037292480468750e+02
4.840000152587890625e+00,1.771604003906250000e+02
4.880000114440917969e+00,1.792159423828125000e+02
4.920000076293945312e+00,1.797031555175781250e+02
4.960000038146972656e+00,1.817618865966796875e+02
5.000000000000000000e+00,1.837755737304687500e+02
5.039999961853027344e+00,1.858929595947265625e+02
5.079999923706054688e+00,1.878684539794921875e+02
5.119999885559082031e+00,1.898407440185546875e+02
5.159999847412109375e+00,1.918104248046875000e+02
5.199999809265136719e+00,1.937750244140625000e+02
5.239999771118164062e+00,1.957362823486328125e+02
5.279999732971191406e+00,1.976988525390625000e+02
5.320000171661376953e+00,1.996632690429687500e+02
5.360000133514404297e+00,2.016292419433593750e+02
5.400000095367431641e+00,2.035932922363281250e+02
5.440000057220458984e+00,2.055536804199218750e+02
5.480000019073486328e+00,2.075145416259765625e+02
5.519999980926513672e+00,2.094762268066406250e+02
5.559999942779541016e+00,2.112934875488281250e+02
5.599999904632568359e+00,2.129589233398437500e+02
5.639999866485595703e+00,2.146206359863281250e+02
5.679999828338623047e+00,2.162796936035156250e+02
5.719999790191650391e+00,2.179367218017578125e+02
5.759999752044677734e+00,2.195910034179687500e+02
5.799999713897705078e+00,2.212255554199218750e+02
5.839999675750732422e+00,2.228415374755859375e+02
5.879999637603759766e+00,2.244548645019531250e+02
5.919999599456787109e+00,2.260657043457031250e+02
5.960000038146972656e+00,2.276737365722656250e+02
6.000000000000000000e+00,2.291471099853515625e+02
6.039999961853027344e+00,2.304829101562500000e+02
6.079999923706054688e+00,2.318135681152343750e+02
6.119999885559082031e+00,2.330276184082031250e+02
6.159999847412109375e+00,2.341608886718750000e+02
6.199999809265136719e+00,2.352972259521484375e+02
6.239999771118164062e+00,2.364368896484375000e+02
6.279999732971191406e+00,2.375710449218750000e+02
6.319999694824218750e+00,2.386999359130859375e+02
6.359999656677246094e+00,2.398232116699218750e+02
6.399999618530273438e+00,2.409366760253906250e+02
6.439999580383300781e+00,2.420405273437500000e+02
6.480000019073486328e+00,2.431390991210937500e+02
6.519999980926513672e+00,2.442328491210937500e+02
6.559999942779541016e+00,2.453216552734375000e+02
6.599999904632568359e+00,2.464017333984375000e+02
6.639999866485595703e+00,2.474730529785156250e+02
6.679999828338623047e+00,2.485399169921875000e+02
6.719999790191650391e+00,2.495510253906250000e+02
6.759999752044677734e+00,2.504505004882812500e+02
6.799999713897705078e+00,2.513360595703125000e+02
6.839999675750732422e+00,2.522081909179687500e+02
6.879999637603759766e+00,2.530754852294921875e+02
6.919999599456787109e+00,2.539380187988281250e+02
6.959999561309814453e+00,2.547958374023437500e+02
7.000000000000000000e+00,2.555840759277343750e+02
7.039999961853027344e+00,2.563020629882812500e+02
7.079999923706054688e+00,2.570164184570312500e+02
7.119999885559082031e+00,2.563623352050781250e+02
7.159999847412109375e+00,2.570550537109375000e+02
7.199999809265136719e+00,2.577663269042968750e+02
7.239999771118164062e+00,2.584968261718750000e+02
7.279999732971191406e+00,2.592229919433593750e+02
7.319999694824218750e+00,2.599447326660156250e+02
7.359999656677246094e+00,2.606620483398437500e+02
7.399999618530273438e+00,2.613664550781250000e+02
7.439999580383300781e+00,2.620577697753906250e+02
7.479999542236328125e+00,2.627453918457031250e+02
7.519999980926513672e+00,2.634287414550781250e+02
7.559999942779541016e+00,2.641082458496093750e+02
7.599999904632568359e+00,2.647784423828125000e+02
7.639999866485595703e+00,2.654391784667968750e+02
7.679999828338623047e+00,2.660962524414062500e+02
7.719999790191650391e+00,2.667499694824218750e+02
7.759999752044677734e+00,2.674006958007812500e+02
7.799999713897705078e+00,2.680437622070312500e+02
7.839999675750732422e+00,2.686788024902343750e+02
7.879999637603759766e+00,2.693106994628906250e+02
7.919999599456787109e+00,2.699393920898437500e+02
7.959999561309814453e+00,2.705647888183593750e+02
7.999999523162841797e+00,2.711745910644531250e+02
8.039999961853027344e+00,2.717687072753906250e+02
8.079999923706054688e+00,2.723599853515625000e+02
8.119999885559082031e+00,2.729484558105468750e+02
8.159999847412109375e+00,2.734601745605468750e+02
8.199999809265136719e+00,2.739625244140625000e+02
8.239999771118164062e+00,2.744500732421875000e+02
8.279999732971191406e+00,2.749183044433593750e+02
8.319999694824218750e+00,2.753837280273437500e+02
8.359999656677246094e+00,2.758463439941406250e+02
8.399999618530273438e+00,2.762982788085937500e+02
8.439999580383300781e+00,2.767400207519531250e+02
8.479999542236328125e+00,2.771788940429687500e+02
8.520000457763671875e+00,2.776154174804687500e+02
8.560000419616699219e+00,2.780492858886718750e+02
8.600000381469726562e+00,2.784697875976562500e+02
8.640000343322753906e+00,2.788768615722656250e+02
8.680000305175781250e+00,2.792813110351562500e+02
8.720000267028808594e+00,2.796831665039062500e+02
8.760000228881835938e+00,2.800827026367187500e+02
8.800000190734863281e+00,2.804669189453125000e+02
8.840000152587890625e+00,2.808358154296875000e+02
8.880000114440917969e+00,2.812024536132812500e+02
8.920000076293945312e+00,2.815673828125000000e+02
8.960000038146972656e+00,2.818889770507812500e+02
9.000000000000000000e+00,2.821671752929687500e+02
9.039999961853027344e+00,2.824246215820312500e+02
9.079999923706054688e+00,2.826795654296875000e+02
9.119999885559082031e+00,2.829304199218750000e+02
9.159999847412109375e+00,2.831701049804687500e+02
9.199999809265136719e+00,2.833782958984375000e+02
9.239999771118164062e+00,2.835549926757812500e+02
9.279999732971191406e+00,2.837292480468750000e+02
9.319999694824218750e+00,2.839013977050781250e+02
9.359999656677246094e+00,2.840711364746093750e+02
9.399999618530273438e+00,2.841892089843750000e+02
9.439999580383300781e+00,2.842558288574218750e+02
9.479999542236328125e+00,2.843200378417968750e+02
9.519999504089355469e+00,2.843819580078125000e+02
9.560000419616699219e+00,2.844418334960937500e+02
9.600000381469726562e+00,2.843218383789062500e+02
9.640000343322753906e+00,2.840684814453125000e+02
9.680000305175781250e+00,2.839532470703125000e+02
9.720000267028808594e+00,2.838356933593750000e+02
9.760000228881835938e+00,2.837156677246093750e+02
9.800000190734863281e+00,2.832598571777343750e+02
9.840000152587890625e+00,2.824591674804687500e+02
9.880000114440917969e+00,2.816287841796875000e+02
9.920000076293945312e+00,2.807966003417968750e+02
9.960000038146972656e+00,2.805466308593750000e+02
1.000000000000000000e+01,2.777328796386718750e+02
1.003999996185302734e+01,2.719101867675781250e+02
1.007999992370605469e+01,2.660458068847656250e+02
1.011999988555908203e+01,2.601401367187500000e+02
1.015999984741210938e+01,2.541937561035156250e+02
1.019999980926513672e+01,2.474801788330078125e+02
1.023999977111816406e+01,2.476446533203125000e+02
1.027999973297119141e+01,2.478000183105468750e+02
1.032000064849853516e+01,2.479465332031250000e+02
1.036000061035156250e+01,2.480844421386718750e+02
1.040000057220458984e+01,2.491343994140625000e+02
1.044000053405761719e+01,2.507435607910156250e+02
1.048000049591064453e+01,2.512570190429687500e+02
1.052000045776367188e+01,2.517660980224609375e+02
1.056000041961669922e+01,2.522708435058593750e+02
1.060000038146972656e+01,2.522645568847656250e+02
1.064000034332275391e+01,2.517496948242187500e+02
1.068000030517578125e+01,2.512334594726562500e+02
1.072000026702880859e+01,2.507158813476562500e+02
1.076000022888183594e+01,2.501971130371093750e+02
1.080000019073486328e+01,2.495711669921875000e+02
1.084000015258789062e+01,2.488210296630859375e+02
1.088000011444091797e+01,2.480621185302734375e+02
1.092000007629394531e+01,2.473029174804687500e+02
1.096000003814697266e+01,2.465434417724609375e+02
1.100000000000000000e+01,2.456823577880859375e+02
1.103999996185302734e+01,2.447197570800781250e+02
1.107999992370605469e+01,2.437577514648437500e+02
1.111999988555908203e+01,2.436996307373046875e+02
1.115999984741210938e+01,2.436390075683593750e+02
1.119999980926513672e+01,2.431224975585937500e+02
1.123999977111816406e+01,2.421471252441406250e+02
1.127999973297119141e+01,2.411655120849609375e+02
1.131999969482421875e+01,2.401772766113281250e+02
1.136000061035156250e+01,2.391831359863281250e+02
1.140000057220458984e+01,2.369905395507812500e+02
1.144000053405761719e+01,2.335918731689453125e+02
1.148000049591064453e+01,2.301763000488281250e+02
1.152000045776367188e+01,2.265237274169921875e+02
1.156000041961669922e+01,2.165614318847656250e+02
1.160000038146972656e+01,2.137660980224609375e+02
1.164000034332275391e+01,2.129572601318359375e+02
1.168000030517578125e+01,2.121421356201171875e+02
1.172000026702880859e+01,2.113173370361328125e+02
1.176000022888183594e+01,2.104835510253906250e+02
1.180000019073486328e+01,2.096017913818359375e+02
1.184000015258789062e+01,2.086760253906250000e+02
1.188000011444091797e+01,2.077491149902343750e+02
1.192000007629394531e+01,2.068133392333984375e+02
1.196000003814697266e+01,2.058699035644531250e+02
1.200000000000000000e+01,2.047873229980468750e+02
1.203999996185302734e+01,2.035662841796875000e+02
1.207999992370605469e+01,2.026835327148437500e+02
1.211999988555908203e+01,2.027916259765625000e+02
1.215999984741210938e+01,2.028990325927734375e+02
1.219999980926513672e+01,2.029595184326171875e+02
1.223999977111816406e+01,2.029727478027343750e+02
1.227999973297119141e+01,2.029849243164062500e+02
1.231999969482421875e+01,2.029960327148437500e+02
1.236000061035156250e+01,2.030061340332031250e+02
1.240000057220458984e+01,2.029240112304687500e+02
1.244000053405761719e+01,2.027501831054687500e+02
1.248000049591064453e+01,2.025751800537109375e+02
1.252000045776367188e+01,2.023992309570312500e+02
1.256000041961669922e+01,2.022225952148437500e+02
1.260000038146972656e+01,2.019884338378906250e+02
1.264000034332275391e+01,2.016967926025390625e+02
1.268000030517578125e+01,2.014046325683593750e+02
1.272000026702880859e+01,2.011114501953125000e+02
1.276000022888183594e+01,2.008174438476562500e+02
1.280000019073486328e+01,2.004865722656250000e+02
1.284000015258789062e+01,2.001187286376953125e+02
1.288000011444091797e+01,1.997509155273437500e+02
1.292000007629394531e+01,1.993825378417968750e+02
1.296000003814697266e+01,1.990134887695312500e+02
1.300000000000000000e+01,1.984526519775390625e+02
1.303999996185302734e+01,1.977004089355468750e+02
1.307999992370605469e+01,1.969483337402343750e+02
1.311999988555908203e+01,1.961888580322265625e+02
1.315999984741210938e+01,1.954270324707031250e+02
1.319999980926513672e+01,1.945583648681640625e+02
1.323999977111816406e+01,1.935839233398437500e+02
1.327999973297119141e+01,1.923375396728515625e+02
1.331999969482421875e+01,1.893036651611328125e+02
1.335999965667724609e+01,1.880933990478515625e+02
1.340000057220458984e+01,1.872354431152343750e+02
1.344000053405761719e+01,1.866707916259765625e+02
1.348000049591064453e+01,1.861057739257812500e+02
1.352000045776367188e+01,1.855403747558593750e+02
1.356000041961669922e+01,1.849749450683593750e+02
1.360000038146972656e+01,1.843620605468750000e+02
1.364000034332275391e+01,1.837021026611328125e+02
1.368000030517578125e+01,1.830415954589843750e+02
1.372000026702880859e+01,1.823811798095703125e+02
1.376000022888183594e+01,1.817206268310546875e+02
1.380000019073486328e+01,1.810040588378906250e+02
1.384000015258789062e+01,1.795950927734375000e+02
1.388000011444091797e+01,1.788159484863281250e+02
1.392000007629394531e+01,1.783560333251953125e+02
1.396000003814697266e+01,1.778972930908203125e+02
1.400000000000000000e+01,1.774833068847656250e+02
1.403999996185302734e+01,1.771142425537109375e+02
1.407999992370605469e+01,1.767448577880859375e+02
1.411999988555908203e+01,1.763748168945312500e+02
1.415999984741210938e+01,1.760044250488281250e+02
1.419999980926513672e+01,1.756330108642578125e+02
1.423999977111816406e+01,1.752604217529296875e+02
1.427999973297119141e+01,1.748874969482421875e+02
1.431999969482421875e+01,1.745145568847656250e+02
1.435999965667724609e+01,1.741414337158203125e+02
1.439999961853027344e+01,1.737481079101562500e+02
1.444000053405761719e+01,1.733292541503906250e+02
1.448000049591064453e+01,1.729105987548828125e+02
1.452000045776367188e+01,1.724920501708984375e+02
1.456000041961669922e+01,1.720733642578125000e+02
1.460000038146972656e+01,1.716481933593750000e+02
1.464000034332275391e+01,1.712165069580078125e+02
1.468000030517578125e+01,1.707848663330078125e+02
1.472000026702880859e+01,1.703532104492187500e+02
1.476000022888183594e+01,1.699216003417968750e+02
1.480000019073486328e+01,1.694865875244140625e+02
1.484000015258789062e+01,1.690480651855468750e+02
1.488000011444091797e+01,1.686092529296875000e+02
1.492000007629394531e+01,1.681704711914062500e+02
1.496000003814697266e+01,1.677317504882812500e+02
1.500000000000000000e+01,1.672903594970703125e+02
1.503999996185302734e+01,1.668462371826171875e+02
1.507999992370605469e+01,1.664020690917968750e+02
1.511999988555908203e+01,1.659576873779296875e+02
1.515999984741210938e+01,1.655134429931640625e+02
1.519999980926513672e+01,1.650650939941406250e+02
1.523999977111816406e+01,1.646126556396484375e+02
1.527999973297119141e+01,1.641601867675781250e+02
1.531999969482421875e+01,1.637079010009765625e+02
1.535999965667724609e+01,1.632554931640625000e+02
1.539999961853027344e+01,1.628038482666015625e+02
1.544000053405761719e+01,1.623528442382812500e+02
1.548000049591064453e+01,1.619018402099609375e+02
1.552000045776367188e+01,1.614510498046875000e+02
1.556000041961669922e+01,1.610002136230468750e+02
1.560000038146972656e+01,1.605579223632812500e+02
1.564000034332275391e+01,1.601240081787109375e+02
1.568000030517578125e+01,1.596899414062500000e+02
1.572000026702880859e+01,1.593385467529296875e+02
1.576000022888183594e+01,1.589878082275390625e+02
1.580000019073486328e+01,1.586293334960937500e+02
1.584000015258789062e+01,1.582629241943359375e+02
1.588000011444091797e+01,1.578928985595703125e+02
1.592000007629394531e+01,1.575222625732421875e+02
1.596000003814697266e+01,1.571513061523437500e+02
1.600000000000000000e+01,1.567818298339843750e+02
1.603999900817871094e+01,1.564139404296875000e+02
1.607999992370605469e+01,1.560455627441406250e+02
1.611999893188476562e+01,1.556767578125000000e+02
1.615999984741210938e+01,1.553074188232421875e+02
1.619999885559082031e+01,1.549376831054687500e+02
1.623999977111816406e+01,1.545674285888671875e+02
1.627999877929687500e+01,1.541968078613281250e+02
1.631999969482421875e+01,1.538256225585937500e+02
1.635999870300292969e+01,1.534540557861328125e+02
1.639999961853027344e+01,1.530820312500000000e+02
1.643999862670898438e+01,1.527096252441406250e+02
1.647999954223632812e+01,1.523367767333984375e+02
1.652000045776367188e+01,1.519701843261718750e+02
1.655999946594238281e+01,1.516033020019531250e+02
1.660000038146972656e+01,1.512359313964843750e+02
1.663999938964843750e+01,1.508681945800781250e+02
1.668000030517578125e+01,1.505000610351562500e+02
1.671999931335449219e+01,1.501316070556640625e+02
1.676000022888183594e+01,1.497626647949218750e+02
1.679999923706054688e+01,1.493933105468750000e+02
1.684000015258789062e+01,1.490236206054687500e+02
1.687999916076660156e+01,1.486534423828125000e+02
1.692000007629394531e+01,1.482829437255859375e+02
1.695999908447265625e+01,1.479120788574218750e+02
1.700000000000000000e+01,1.475528411865234375e+02
1.703999900817871094e+01,1.472051849365234375e+02
1.707999992370605469e+01,1.468572082519531250e+02
1.711999893188476562e+01,1.465090942382812500e+02
1.715999984741210938e+01,1.461606445312500000e+02
1.719999885559082031e+01,1.458120269775390625e+02
1.723999977111816406e+01,1.454631958007812500e+02
1.727999877929687500e+01,1.451082458496093750e+02
1.731999969482421875e+01,1.447511901855468750e+02
1.735999870300292969e+01,1.443940277099609375e+02
1.739999961853027344e+01,1.440366058349609375e+02
1.743999862670898438e+01,1.436783905029296875e+02
1.747999954223632812e+01,1.433183441162109375e+02
