# Start of Energy Bin (keV), Effective Area (cm^2)
1.600000023841857910e+00,9.717226028442382812e-01
1.639999985694885254e+00,1.353298187255859375e+00
1.680000066757202148e+00,1.877685546875000000e+00
1.720000028610229492e+00,2.596174240112304688e+00
1.759999990463256836e+00,3.525716304779052734e+00
1.799999952316284180e+00,4.461925506591796875e+00
1.840000033378601074e+00,2.485875844955444336e+00
1.879999995231628418e+00,3.176243782043457031e+00
1.920000076293945312e+00,4.139057636260986328e+00
1.960000038146972656e+00,5.212914466857910156e+00
2.000000000000000000e+00,6.442223548889160156e+00
2.039999961853027344e+00,7.886331081390380859e+00
2.079999923706054688e+00,9.640213966369628906e+00
2.119999885559082031e+00,8.773723602294921875e+00
2.160000085830688477e+00,1.019207096099853516e+01
2.200000047683715820e+00,1.063654708862304688e+01
2.240000009536743164e+00,1.218681049346923828e+01
2.279999971389770508e+00,1.400094413757324219e+01
2.319999933242797852e+00,1.622692680358886719e+01
2.360000133514404297e+00,1.838868713378906250e+01
2.400000095367431641e+00,2.046262359619140625e+01
2.440000057220458984e+00,2.281207275390625000e+01
2.480000019073486328e+00,2.555752182006835938e+01
2.519999980926513672e+00,2.886414527893066406e+01
2.559999942779541016e+00,3.250031280517578125e+01
2.599999904632568359e+00,3.580044174194335938e+01
2.639999866485595703e+00,3.649494552612304688e+01
2.679999828338623047e+00,3.980740356445312500e+01
2.720000028610229492e+00,4.337659072875976562e+01
2.759999990463256836e+00,4.723837280273437500e+01
2.799999952316284180e+00,5.139941024780273438e+01
2.840000152587890625e+00,5.569805908203125000e+01
2.880000114440917969e+00,5.940438461303710938e+01
2.920000076293945312e+00,6.328526687622070312e+01
2.960000038146972656e+00,6.739676666259765625e+01
3.000000000000000000e+00,7.196965026855468750e+01
3.039999961853027344e+00,7.484860229492187500e+01
3.079999923706054688e+00,7.969232940673828125e+01
3.119999885559082031e+00,8.474031829833984375e+01
3.159999847412109375e+00,8.902457427978515625e+01
3.199999809265136719e+00,9.346852874755859375e+01
3.240000009536743164e+00,9.807973480224609375e+01
3.279999971389770508e+00,1.014989471435546875e+02
3.319999933242797852e+00,1.062695236206054688e+02
3.360000133514404297e+00,1.112211532592773438e+02
3.400000095367431641e+00,1.163524551391601562e+02
3.440000057220458984e+00,1.208357925415039062e+02
3.480000019073486328e+00,1.243210220336914062e+02
3.519999980926513672e+00,1.199459533691406250e+02
3.559999942779541016e+00,1.234133377075195312e+02
3.599999904632568359e+00,1.270158233642578125e+02
3.639999866485595703e+00,1.306755981445312500e+02
3.679999828338623047e+00,1.343977203369140625e+02
3.719999790191650391e+00,1.340229797363281250e+02
3.759999752044677734e+00,1.378674163818359375e+02
3.800000190734863281e+00,1.412575073242187500e+02
3.840000152587890625e+00,1.443346862792968750e+02
3.880000114440917969e+00,1.474280090332031250e+02
3.920000076293945312e+00,1.511106262207031250e+02
3.960000038146972656e+00,1.550269012451171875e+02
4.000000000000000000e+00,1.567206420898437500e+02
4.039999961853027344e+00,1.605523834228515625e+02
4.079999923706054688e+00,1.644293518066406250e+02
4.119999885559082031e+00,1.683524169921875000e+02
4.159999847412109375e+00,1.722764282226562500e+02
4.199999809265136719e+00,1.756352233886718750e+02
4.239999771118164062e+00,1.790126037597656250e+02
4.279999732971191406e+00,1.824173126220703125e+02
4.320000171661376953e+00,1.781752624511718750e+02
4.360000133514404297e+00,1.789188537597656250e+02
4.400000095367431641e+00,1.819605407714843750e+02
4.440000057220458984e+00,1.850234832763671875e+02
4.480000019073486328e+00,1.881240997314453125e+02
4.519999980926513672e+00,1.912493438720703125e+02
4.559999942779541016e+00,1.943735198974609375e+02
4.599999904632568359e+00,1.917902984619140625e+02
4.639999866485595703e+00,1.946367492675781250e+02
4.679999828338623047e+00,1.972171936035156250e+02
4.719999790191650391e+00,1.997989196777343750e+02
4.759999752044677734e+00,2.023839111328125000e+02
4.799999713897705078e+00,2.049725799560546875e+02
4.840000152587890625e+00,2.075517578125000000e+02
4.880000114440917969e+00,2.101282958984375000e+02
4.920000076293945312e+00,2.100662994384765625e+02
4.960000038146972656e+00,2.126441802978515625e+02
5.000000000000000000e+00,2.151675415039062500e+02
5.039999961853027344e+00,2.178120422363281250e+02
5.079999923706054688e+00,2.202890319824218750e+02
5.119999885559082031e+00,2.227595520019531250e+02
5.159999847412109375e+00,2.252252502441406250e+02
5.199999809265136719e+00,2.276833801269531250e+02
5.239999771118164062e+00,2.301361694335937500e+02
5.279999732971191406e+00,2.325900726318359375e+02
5.320000171661376953e+00,2.350446472167968750e+02
5.360000133514404297e+00,2.375002746582031250e+02
5.400000095367431641e+00,2.399524536132812500e+02
5.440000057220458984e+00,2.423986663818359375e+02
5.480000019073486328e+00,2.448437347412109375e+02
5.519999980926513672e+00,2.472880096435546875e+02
5.559999942779541016e+00,2.495603637695312500e+02
5.599999904632568359e+00,2.516513366699218750e+02
5.639999866485595703e+00,2.537359466552734375e+02
5.679999828338623047e+00,2.558157348632812500e+02
5.719999790191650391e+00,2.578919677734375000e+02
5.759999752044677734e+00,2.599635925292968750e+02
5.799999713897705078e+00,2.620101928710937500e+02
5.839999675750732422e+00,2.640331115722656250e+02
5.879999637603759766e+00,2.660511169433593750e+02
5.919999599456787109e+00,2.680643920898437500e+02
5.960000038146972656e+00,2.700725402832031250e+02
6.000000000000000000e+00,2.719227600097656250e+02
6.039999961853027344e+00,2.736114501953125000e+02
6.079999923706054688e+00,2.752923583984375000e+02
6.119999885559082031e+00,2.768328552246093750e+02
6.159999847412109375e+00,2.782754821777343750e+02
6.199999809265136719e+00,2.797197875976562500e+02
6.239999771118164062e+00,2.811666564941406250e+02
6.279999732971191406e+00,2.826054382324218750e+02
6.319999694824218750e+00,2.840363159179687500e+02
6.359999656677246094e+00,2.854589233398437500e+02
6.399999618530273438e+00,2.868678588867187500e+02
6.439999580383300781e+00,2.882635498046875000e+02
6.480000019073486328e+00,2.896515502929687500e+02
6.519999980926513672e+00,2.910322570800781250e+02
6.559999942779541016e+00,2.924057617187500000e+02
6.599999904632568359e+00,2.937669372558593750e+02
6.639999866485595703e+00,2.951159667968750000e+02
6.679999828338623047e+00,2.964581604003906250e+02
6.719999790191650391e+00,2.977325134277343750e+02
6.759999752044677734e+00,2.988719787597656250e+02
6.799999713897705078e+00,2.999930419921875000e+02
6.839999675750732422e+00,3.010961303710937500e+02
6.879999637603759766e+00,3.021920471191406250e+02
6.919999599456787109e+00,3.032811279296875000e+02
6.959999561309814453e+00,3.043632812500000000e+02
7.000000000000000000e+00,3.053727111816406250e+02
7.039999961853027344e+00,3.063088989257812500e+02
7.079999923706054688e+00,3.072397766113281250e+02
7.119999885559082031e+00,3.065333251953125000e+02
7.159999847412109375e+00,3.074355773925781250e+02
7.199999809265136719e+00,3.083533325195312500e+02
7.239999771118164062e+00,3.092878723144531250e+02
7.279999732971191406e+00,3.102161254882812500e+02
7.319999694824218750e+00,3.111378173828125000e+02
7.359999656677246094e+00,3.120531616210937500e+02
7.399999618530273438e+00,3.129516601562500000e+02
7.439999580383300781e+00,3.138334045410156250e+02
7.479999542236328125e+00,3.147095031738281250e+02
7.519999980926513672e+00,3.155796508789062500e+02
7.559999942779541016e+00,3.164440612792968750e+02
7.599999904632568359e+00,3.172955017089843750e+02
7.639999866485595703e+00,3.181336975097656250e+02
7.679999828338623047e+00,3.189667968750000000e+02
7.719999790191650391e+00,3.197948913574218750e+02
7.759999752044677734e+00,3.206185302734375000e+02
7.799999713897705078e+00,3.214312744140625000e+02
7.839999675750732422e+00,3.222322387695312500e+02
7.879999637603759766e+00,3.230284729003906250e+02
7.919999599456787109e+00,3.238202209472656250e+02
7.959999561309814453e+00,3.246071472167968750e+02
7.999999523162841797e+00,3.253592224121093750e+02
8.039999961853027344e+00,3.260765075683593750e+02
8.079999923706054688e+00,3.267894897460937500e+02
8.119999885559082031e+00,3.274978942871093750e+02
8.159999847412109375e+00,3.281136779785156250e+02
8.199999809265136719e+00,3.287144165039062500e+02
8.239999771118164062e+00,3.293103332519531250e+02
8.279999732971191406e+00,3.299310607910156250e+02
8.319999694824218750e+00,3.305477294921875000e+02
8.359999656677246094e+00,3.311604614257812500e+02
8.399999618530273438e+00,3.317554931640625000e+02
8.439999580383300781e+00,3.323337707519531250e+02
8.479999542236328125e+00,3.329080810546875000e+02
8.520000457763671875e+00,3.334787597656250000e+02
8.560000419616699219e+00,3.340455627441406250e+02
8.600000381469726562e+00,3.345881958007812500e+02
8.640000343322753906e+00,3.351063232421875000e+02
8.680000305175781250e+00,3.356207580566406250e+02
8.720000267028808594e+00,3.361315002441406250e+02
8.760000228881835938e+00,3.366386108398437500e+02
8.800000190734863281e+00,3.371133422851562500e+02
8.840000152587890625e+00,3.375556335449218750e+02
8.880000114440917969e+00,3.379942321777343750e+02
8.920000076293945312e+00,3.384300842285156250e+02
8.960000038146972656e+00,3.388131103515625000e+02
9.000000000000000000e+00,3.391213073730468750e+02
9.039999961853027344e+00,3.393818054199218750e+02
9.079999923706054688e+00,3.396385803222656250e+02
9.119999885559082031e+00,3.399007873535156250e+02
9.159999847412109375e+00,3.402031860351562500e+02
9.199999809265136719e+00,3.404381103515625000e+02
9.239999771118164062e+00,3.406052551269531250e+02
9.279999732971191406e+00,3.407687377929687500e+02
9.319999694824218750e+00,3.409289550781250000e+02
9.359999656677246094e+00,3.410854797363281250e+02
9.399999618530273438e+00,3.411502075195312500e+02
9.439999580383300781e+00,3.411229553222656250e+02
9.479999542236328125e+00,3.410919799804687500e+02
9.519999504089355469e+00,3.410571289062500000e+02
9.560000419616699219e+00,3.410189819335937500e+02
9.600000381469726562e+00,3.407019653320312500e+02
9.640000343322753906e+00,3.401851501464843750e+02
9.680000305175781250e+00,3.399027099609375000e+02
9.720000267028808594e+00,3.396180419921875000e+02
9.760000228881835938e+00,3.393296508789062500e+02
9.800000190734863281e+00,3.386017456054687500e+02
9.840000152587890625e+00,3.374240417480468750e+02
9.880000114440917969e+00,3.362102050781250000e+02
9.920000076293945312e+00,3.349922180175781250e+02
9.960000038146972656e+00,3.343648986816406250e+02
1.000000000000000000e+01,3.306529846191406250e+02
1.003999996185302734e+01,3.234098815917968750e+02
1.007999992370605469e+01,3.161299438476562500e+02
1.011999988555908203e+01,3.088234252929687500e+02
1.015999984741210938e+01,3.014811096191406250e+02
1.019999980926513672e+01,2.933163452148437500e+02
1.023999977111816406e+01,2.935468139648437500e+02
1.027999973297119141e+01,2.937666320800781250e+02
1.032000064849853516e+01,2.939671630859375000e+02
1.036000061035156250e+01,2.941575927734375000e+02
1.040000057220458984e+01,2.954143066406250000e+02
1.044000053405761719e+01,2.973177795410156250e+02
1.048000049591064453e+01,2.979175415039062500e+02
1.052000045776367188e+01,2.985130004882812500e+02
1.056000041961669922e+01,2.991028747558593750e+02
1.060000038146972656e+01,2.990525817871093750e+02
1.064000034332275391e+01,2.983657836914062500e+02
1.068000030517578125e+01,2.976770629882812500e+02
1.072000026702880859e+01,2.969850158691406250e+02
1.076000022888183594e+01,2.962913818359375000e+02
1.080000019073486328e+01,2.954714050292968750e+02
1.084000015258789062e+01,2.945050659179687500e+02
1.088000011444091797e+01,2.935283203125000000e+02
1.092000007629394531e+01,2.925526733398437500e+02
1.096000003814697266e+01,2.915768432617187500e+02
1.100000000000000000e+01,2.904841003417968750e+02
1.103999996185302734e+01,2.892745971679687500e+02
1.107999992370605469e+01,2.880659790039062500e+02
1.111999988555908203e+01,2.879547729492187500e+02
1.115999984741210938e+01,2.878405761718750000e+02
1.119999980926513672e+01,2.871772460937500000e+02
1.123999977111816406e+01,2.859618835449218750e+02
1.127999973297119141e+01,2.847395324707031250e+02
1.131999969482421875e+01,2.835099182128906250e+02
1.136000061035156250e+01,2.822736511230468750e+02
1.140000057220458984e+01,2.796265869140625000e+02
1.144000053405761719e+01,2.755605163574218750e+02
1.148000049591064453e+01,2.714760742187500000e+02
1.152000045776367188e+01,2.671168518066406250e+02
1.156000041961669922e+01,2.554574737548828125e+02
1.160000038146972656e+01,2.521398620605468750e+02
1.164000034332275391e+01,2.511829833984375000e+02
1.168000030517578125e+01,2.502188110351562500e+02
1.172000026702880859e+01,2.492408142089843750e+02
1.176000022888183594e+01,2.482522430419921875e+02
1.180000019073486328e+01,2.472116241455078125e+02
1.184000015258789062e+01,2.461233825683593750e+02
1.188000011444091797e+01,2.450337524414062500e+02
1.192000007629394531e+01,2.439359283447265625e+02
1.196000003814697266e+01,2.428288421630859375e+02
1.200000000000000000e+01,2.415512542724609375e+02
1.203999996185302734e+01,2.401038208007812500e+02
1.207999992370605469e+01,2.390691375732421875e+02
1.211999988555908203e+01,2.392413940429687500e+02
1.215999984741210938e+01,2.394125671386718750e+02
1.219999980926513672e+01,2.395205535888671875e+02
1.223999977111816406e+01,2.395649719238281250e+02
1.227999973297119141e+01,2.396081237792968750e+02
1.231999969482421875e+01,2.396497344970703125e+02
1.236000061035156250e+01,2.396902313232421875e+02
1.240000057220458984e+01,2.396138610839843750e+02
1.244000053405761719e+01,2.394213104248046875e+02
1.248000049591064453e+01,2.392274169921875000e+02
1.252000045776367188e+01,2.390321960449218750e+02
1.256000041961669922e+01,2.388360900878906250e+02
1.260000038146972656e+01,2.385663452148437500e+02
1.264000034332275391e+01,2.382231903076171875e+02
1.268000030517578125e+01,2.378792266845703125e+02
1.272000026702880859e+01,2.375341339111328125e+02
1.276000022888183594e+01,2.371879577636718750e+02
1.280000019073486328e+01,2.367923431396484375e+02
1.284000015258789062e+01,2.363471984863281250e+02
1.288000011444091797e+01,2.359020538330078125e+02
1.292000007629394531e+01,2.354562072753906250e+02
1.296000003814697266e+01,2.350095825195312500e+02
1.300000000000000000e+01,2.343223571777343750e+02
1.303999996185302734e+01,2.333950042724609375e+02
1.307999992370605469e+01,2.324681549072265625e+02
1.311999988555908203e+01,2.315446014404296875e+02
1.315999984741210938e+01,2.306183776855468750e+02
1.319999980926513672e+01,2.295563507080078125e+02
1.323999977111816406e+01,2.283598175048828125e+02
1.327999973297119141e+01,2.268856201171875000e+02
1.331999969482421875e+01,2.233338623046875000e+02
1.335999965667724609e+01,2.219083404541015625e+02
1.340000057220458984e+01,2.208977508544921875e+02
1.344000053405761719e+01,2.202266998291015625e+02
1.348000049591064453e+01,2.195553436279296875e+02
1.352000045776367188e+01,2.189117736816406250e+02
1.356000041961669922e+01,2.182679901123046875e+02
1.360000038146972656e+01,2.175584564208984375e+02
1.364000034332275391e+01,2.167838287353515625e+02
1.368000030517578125e+01,2.160084533691406250e+02
1.372000026702880859e+01,2.151882476806640625e+02
1.376000022888183594e+01,2.143681488037109375e+02
1.380000019073486328e+01,2.134799041748046875e+02
1.384000015258789062e+01,2.117894897460937500e+02
1.388000011444091797e+01,2.108484802246093750e+02
1.392000007629394531e+01,2.103217315673828125e+02
1.396000003814697266e+01,2.097960815429687500e+02
1.400000000000000000e+01,2.093216705322265625e+02
1.403999996185302734e+01,2.088984985351562500e+02
1.407999992370605469e+01,2.084747924804687500e+02
1.411999988555908203e+01,2.080230102539062500e+02
1.415999984741210938e+01,2.075709533691406250e+02
1.419999980926513672e+01,2.071164093017578125e+02
1.423999977111816406e+01,2.066593475341796875e+02
1.427999973297119141e+01,2.062019958496093750e+02
1.431999969482421875e+01,2.057662811279296875e+02
1.435999965667724609e+01,2.053303222656250000e+02
1.439999961853027344e+01,2.048709716796875000e+02
1.444000053405761719e+01,2.043818817138671875e+02
1.448000049591064453e+01,2.038930511474609375e+02
1.452000045776367188e+01,2.033934631347656250e+02
1.456000041961669922e+01,2.028937530517578125e+02
1.460000038146972656e+01,2.023880462646484375e+02
1.464000034332275391e+01,2.018761901855468750e+02
1.468000030517578125e+01,2.013643951416015625e+02
1.472000026702880859e+01,2.008430175781250000e+02
1.476000022888183594e+01,2.003217010498046875e+02
1.480000019073486328e+01,1.997977905273437500e+02
1.484000015258789062e+01,1.992711334228515625e+02
1.488000011444091797e+01,1.987442016601562500e+02
1.492000007629394531e+01,1.982215423583984375e+02
1.496000003814697266e+01,1.976989593505859375e+02
1.500000000000000000e+01,1.971752014160156250e+02
1.503999996185302734e+01,1.966501617431640625e+02
1.507999992370605469e+01,1.961251068115234375e+02
1.511999988555908203e+01,1.956253356933593750e+02
1.515999984741210938e+01,1.951255798339843750e+02
1.519999980926513672e+01,1.946216583251953125e+02
1.523999977111816406e+01,1.941136016845703125e+02
1.527999973297119141e+01,1.936053619384765625e+02
1.531999969482421875e+01,1.930772094726562500e+02
1.535999965667724609e+01,1.925490264892578125e+02
1.539999961853027344e+01,1.920223083496093750e+02
1.544000053405761719e+01,1.914971008300781250e+02
1.548000049591064453e+01,1.909718475341796875e+02
1.552000045776367188e+01,1.904466705322265625e+02
1.556000041961669922e+01,1.899213867187500000e+02
1.560000038146972656e+01,1.894072570800781250e+02
1.564000034332275391e+01,1.889042816162109375e+02
1.568000030517578125e+01,1.884011535644531250e+02
1.572000026702880859e+01,1.879740295410156250e+02
1.576000022888183594e+01,1.875475616455078125e+02
1.580000019073486328e+01,1.871118774414062500e+02
1.584000015258789062e+01,1.866668853759765625e+02
1.588000011444091797e+01,1.862177276611328125e+02
1.592000007629394531e+01,1.857698211669921875e+02
1.596000003814697266e+01,1.853214111328125000e+02
1.600000000000000000e+01,1.848753967285156250e+02
1.603999900817871094e+01,1.844317169189453125e+02
1.607999992370605469e+01,1.839875640869140625e+02
1.611999893188476562e+01,1.835419464111328125e+02
1.615999984741210938e+01,1.830957641601562500e+02
1.619999885559082031e+01,1.826491394042968750e+02
1.623999977111816406e+01,1.822019348144531250e+02
1.627999877929687500e+01,1.817543029785156250e+02
1.631999969482421875e+01,1.813058929443359375e+02
1.635999870300292969e+01,1.808570251464843750e+02
1.639999961853027344e+01,1.804076995849609375e+02
1.643999862670898438e+01,1.799579925537109375e+02
1.647999954223632812e+01,1.795076599121093750e+02
1.652000045776367188e+01,1.790671539306640625e+02
1.655999946594238281e+01,1.786262359619140625e+02
1.660000038146972656e+01,1.781849212646484375e+02
1.663999938964843750e+01,1.777431488037109375e+02
1.668000030517578125e+01,1.773008880615234375e+02
1.671999931335449219e+01,1.768580627441406250e+02
1.676000022888183594e+01,1.764147338867187500e+02
1.679999923706054688e+01,1.759710083007812500e+02
1.684000015258789062e+01,1.755267944335937500e+02
1.687999916076660156e+01,1.750821533203125000e+02
1.692000007629394531e+01,1.746370697021484375e+02
1.695999908447265625e+01,1.741916503906250000e+02
1.700000000000000000e+01,1.737617645263671875e+02
1.703999900817871094e+01,1.733472595214843750e+02
1.707999992370605469e+01,1.729324340820312500e+02
1.711999893188476562e+01,1.725172119140625000e+02
1.715999984741210938e+01,1.721016387939453125e+02
1.719999885559082031e+01,1.716858825683593750e+02
1.723999977111816406e+01,1.712698516845703125e+02
1.727999877929687500e+01,1.708300018310546875e+02
1.731999969482421875e+01,1.703827209472656250e+02
1.735999870300292969e+01,1.699354705810546875e+02
1.739999961853027344e+01,1.694880218505859375e+02
1.743999862670898438e+01,1.690397949218750000e+02
1.747999954223632812e+01,1.685895690917968750e+02
