# Start of Energy Bin (keV), Effective Area (cm^2)
1.600000023841857910e+00,6.519860029220581055e-01
1.639999985694885254e+00,9.051646590232849121e-01
1.680000066757202148e+00,1.251946091651916504e+00
1.720000028610229492e+00,1.725503563880920410e+00
1.759999990463256836e+00,2.335818529129028320e+00
1.799999952316284180e+00,2.942295551300048828e+00
1.840000033378601074e+00,1.630129218101501465e+00
1.879999995231628418e+00,2.079618930816650391e+00
1.920000076293945312e+00,2.716279745101928711e+00
1.960000038146972656e+00,3.428885459899902344e+00
2.000000000000000000e+00,4.249701023101806641e+00
2.039999961853027344e+00,5.220294475555419922e+00
2.079999923706054688e+00,6.403172492980957031e+00
2.119999885559082031e+00,5.837759017944335938e+00
2.160000085830688477e+00,6.786594867706298828e+00
2.200000047683715820e+00,7.085864067077636719e+00
2.240000009536743164e+00,8.120018959045410156e+00
2.279999971389770508e+00,9.330581665039062500e+00
2.319999933242797852e+00,1.082091045379638672e+01
2.360000133514404297e+00,1.227026557922363281e+01
2.400000095367431641e+00,1.366199588775634766e+01
2.440000057220458984e+00,1.523846054077148438e+01
2.480000019073486328e+00,1.708120155334472656e+01
2.519999980926513672e+00,1.930241966247558594e+01
2.559999942779541016e+00,2.174429512023925781e+01
2.599999904632568359e+00,2.395958518981933594e+01
2.639999866485595703e+00,2.443156814575195312e+01
2.679999828338623047e+00,2.665124702453613281e+01
2.720000028610229492e+00,2.903770256042480469e+01
2.759999990463256836e+00,3.161948776245117188e+01
2.799999952316284180e+00,3.440024185180664062e+01
2.840000152587890625e+00,3.727528381347656250e+01
2.880000114440917969e+00,3.975539779663085938e+01
2.920000076293945312e+00,4.236030960083007812e+01
2.960000038146972656e+00,4.512055587768554688e+01
3.000000000000000000e+00,4.807485198974609375e+01
3.039999961853027344e+00,4.977159118652343750e+01
3.079999923706054688e+00,5.275283050537109375e+01
3.119999885559082031e+00,5.582774353027343750e+01
3.159999847412109375e+00,5.837298583984375000e+01
3.199999809265136719e+00,6.099873352050781250e+01
3.240000009536743164e+00,6.370876693725585938e+01
3.279999971389770508e+00,6.562043762207031250e+01
3.319999933242797852e+00,6.953580474853515625e+01
3.360000133514404297e+00,7.365340423583984375e+01
3.400000095367431641e+00,7.796385192871093750e+01
3.440000057220458984e+00,8.112366485595703125e+01
3.480000019073486328e+00,8.335255432128906250e+01
3.519999980926513672e+00,8.030023956298828125e+01
3.559999942779541016e+00,8.249834442138671875e+01
3.599999904632568359e+00,8.477902221679687500e+01
3.639999866485595703e+00,8.708994293212890625e+01
3.679999828338623047e+00,8.943410491943359375e+01
3.719999790191650391e+00,8.903951263427734375e+01
3.759999752044677734e+00,9.144332885742187500e+01
3.800000190734863281e+00,9.353677368164062500e+01
3.840000152587890625e+00,9.541477966308593750e+01
3.880000114440917969e+00,9.729567718505859375e+01
3.920000076293945312e+00,9.974336242675781250e+01
3.960000038146972656e+00,1.024076614379882812e+02
4.000000000000000000e+00,1.036060867309570312e+02
4.039999961853027344e+00,1.062200851440429688e+02
4.079999923706054688e+00,1.088675842285156250e+02
4.119999885559082031e+00,1.115618362426757812e+02
4.159999847412109375e+00,1.142608795166015625e+02
4.199999809265136719e+00,1.165886077880859375e+02
4.239999771118164062e+00,1.189318389892578125e+02
4.279999732971191406e+00,1.212967376708984375e+02
4.320000171661376953e+00,1.185625534057617188e+02
4.360000133514404297e+00,1.190466003417968750e+02
4.400000095367431641e+00,1.210261459350585938e+02
4.440000057220458984e+00,1.230179901123046875e+02
4.480000019073486328e+00,1.250333480834960938e+02
4.519999980926513672e+00,1.270783615112304688e+02
4.559999942779541016e+00,1.291215515136718750e+02
4.599999904632568359e+00,1.273728790283203125e+02
4.639999866485595703e+00,1.292297210693359375e+02
4.679999828338623047e+00,1.309089660644531250e+02
4.719999790191650391e+00,1.325673828125000000e+02
4.759999752044677734e+00,1.342265014648437500e+02
4.799999713897705078e+00,1.358862152099609375e+02
4.840000152587890625e+00,1.375377502441406250e+02
4.880000114440917969e+00,1.391860656738281250e+02
4.920000076293945312e+00,1.390981903076171875e+02
4.960000038146972656e+00,1.407577819824218750e+02
5.000000000000000000e+00,1.423796997070312500e+02
5.039999961853027344e+00,1.440832672119140625e+02
5.079999923706054688e+00,1.456771240234375000e+02
5.119999885559082031e+00,1.472617034912109375e+02
5.159999847412109375e+00,1.488421630859375000e+02
5.199999809265136719e+00,1.504161834716796875e+02
5.239999771118164062e+00,1.519852447509765625e+02
5.279999732971191406e+00,1.535540924072265625e+02
5.320000171661376953e+00,1.551269989013671875e+02
5.360000133514404297e+00,1.566997070312500000e+02
5.400000095367431641e+00,1.582687377929687500e+02
5.440000057220458984e+00,1.598324279785156250e+02
5.480000019073486328e+00,1.613944854736328125e+02
5.519999980926513672e+00,1.629657897949218750e+02
5.559999942779541016e+00,1.644231414794921875e+02
5.599999904632568359e+00,1.657597808837890625e+02
5.639999866485595703e+00,1.670910339355468750e+02
5.679999828338623047e+00,1.684185638427734375e+02
5.719999790191650391e+00,1.697234344482421875e+02
5.759999752044677734e+00,1.710244140625000000e+02
5.799999713897705078e+00,1.723067932128906250e+02
5.839999675750732422e+00,1.735715332031250000e+02
5.879999637603759766e+00,1.748321533203125000e+02
5.919999599456787109e+00,1.760976104736328125e+02
5.960000038146972656e+00,1.773589477539062500e+02
6.000000000000000000e+00,1.785222167968750000e+02
6.039999961853027344e+00,1.795851898193359375e+02
6.079999923706054688e+00,1.806425170898437500e+02
6.119999885559082031e+00,1.816194152832031250e+02
6.159999847412109375e+00,1.825317382812500000e+02
6.199999809265136719e+00,1.834444122314453125e+02
6.239999771118164062e+00,1.843579711914062500e+02
6.279999732971191406e+00,1.852658691406250000e+02
6.319999694824218750e+00,1.861552581787109375e+02
6.359999656677246094e+00,1.870387573242187500e+02
6.399999618530273438e+00,1.879115905761718750e+02
6.439999580383300781e+00,1.887739257812500000e+02
6.480000019073486328e+00,1.896307983398437500e+02
6.519999980926513672e+00,1.904824218750000000e+02
6.559999942779541016e+00,1.913288421630859375e+02
6.599999904632568359e+00,1.921651306152343750e+02
6.639999866485595703e+00,1.929913940429687500e+02
6.679999828338623047e+00,1.938126525878906250e+02
6.719999790191650391e+00,1.945843811035156250e+02
6.759999752044677734e+00,1.952674865722656250e+02
6.799999713897705078e+00,1.959355010986328125e+02
6.839999675750732422e+00,1.965887145996093750e+02
6.879999637603759766e+00,1.972368011474609375e+02
6.919999599456787109e+00,1.979081420898437500e+02
6.959999561309814453e+00,1.985746612548828125e+02
7.000000000000000000e+00,1.991966400146484375e+02
7.039999961853027344e+00,1.997736511230468750e+02
7.079999923706054688e+00,2.003469848632812500e+02
7.119999885559082031e+00,1.998143615722656250e+02
7.159999847412109375e+00,2.003303680419921875e+02
7.199999809265136719e+00,2.008437957763671875e+02
7.239999771118164062e+00,2.013554229736328125e+02
7.279999732971191406e+00,2.018623504638671875e+02
7.319999694824218750e+00,2.023944244384765625e+02
7.359999656677246094e+00,2.029219970703125000e+02
7.399999618530273438e+00,2.034333190917968750e+02
7.439999580383300781e+00,2.039284210205078125e+02
7.479999542236328125e+00,2.044194793701171875e+02
7.519999980926513672e+00,2.048801879882812500e+02
7.559999942779541016e+00,2.053366851806640625e+02
7.599999904632568359e+00,2.057739868164062500e+02
7.639999866485595703e+00,2.061918029785156250e+02
7.679999828338623047e+00,2.066057586669921875e+02
7.719999790191650391e+00,2.070469665527343750e+02
7.759999752044677734e+00,2.074848785400390625e+02
7.799999713897705078e+00,2.078984680175781250e+02
7.839999675750732422e+00,2.082871551513671875e+02
7.879999637603759766e+00,2.086721801757812500e+02
7.919999599456787109e+00,2.090342102050781250e+02
7.959999561309814453e+00,2.093924865722656250e+02
7.999999523162841797e+00,2.096939392089843750e+02
8.039999961853027344e+00,2.099384765625000000e+02
8.079999923706054688e+00,2.101793212890625000e+02
8.119999885559082031e+00,2.104392089843750000e+02
8.159999847412109375e+00,2.106387481689453125e+02
8.199999809265136719e+00,2.107964019775390625e+02
8.239999771118164062e+00,2.109487915039062500e+02
8.279999732971191406e+00,2.112071075439453125e+02
8.319999694824218750e+00,2.114619903564453125e+02
8.359999656677246094e+00,2.117135314941406250e+02
8.399999618530273438e+00,2.119234771728515625e+02
8.439999580383300781e+00,2.120922241210937500e+02
8.479999542236328125e+00,2.122573852539062500e+02
8.520000457763671875e+00,2.124344177246093750e+02
8.560000419616699219e+00,2.126079406738281250e+02
8.600000381469726562e+00,2.127421569824218750e+02
8.640000343322753906e+00,2.128367156982421875e+02
8.680000305175781250e+00,2.129277038574218750e+02
8.720000267028808594e+00,2.130069274902343750e+02
8.760000228881835938e+00,2.130827178955078125e+02
8.800000190734863281e+00,2.131245269775390625e+02
8.840000152587890625e+00,2.131323242187500000e+02
8.880000114440917969e+00,2.131364746093750000e+02
8.920000076293945312e+00,2.131628417968750000e+02
8.960000038146972656e+00,2.131547241210937500e+02
9.000000000000000000e+00,2.130974884033203125e+02
9.039999961853027344e+00,2.130082855224609375e+02
9.079999923706054688e+00,2.129155273437500000e+02
9.119999885559082031e+00,2.128341217041015625e+02
9.159999847412109375e+00,2.128747253417968750e+02
9.199999809265136719e+00,2.128827514648437500e+02
9.239999771118164062e+00,2.128580169677734375e+02
9.279999732971191406e+00,2.128294677734375000e+02
9.319999694824218750e+00,2.128162384033203125e+02
9.359999656677246094e+00,2.127991943359375000e+02
9.399999618530273438e+00,2.127401885986328125e+02
9.439999580383300781e+00,2.126391754150390625e+02
9.479999542236328125e+00,2.125343017578125000e+02
9.519999504089355469e+00,2.124231109619140625e+02
9.560000419616699219e+00,2.123082580566406250e+02
9.600000381469726562e+00,2.120263977050781250e+02
9.640000343322753906e+00,2.116267700195312500e+02
9.680000305175781250e+00,2.113713836669921875e+02
9.720000267028808594e+00,2.111299133300781250e+02
9.760000228881835938e+00,2.108844451904296875e+02
9.800000190734863281e+00,2.103005371093750000e+02
9.840000152587890625e+00,2.093714141845703125e+02
9.880000114440917969e+00,2.084178619384765625e+02
9.920000076293945312e+00,2.074944458007812500e+02
9.960000038146972656e+00,2.067550811767578125e+02
1.000000000000000000e+01,2.038488159179687500e+02
1.003999996185302734e+01,1.986513977050781250e+02
1.007999992370605469e+01,1.934618072509765625e+02
1.011999988555908203e+01,1.882468109130859375e+02
1.015999984741210938e+01,1.830432586669921875e+02
1.019999980926513672e+01,1.773648223876953125e+02
1.023999977111816406e+01,1.775416259765625000e+02
1.027999973297119141e+01,1.777126159667968750e+02
1.032000064849853516e+01,1.778827514648437500e+02
1.036000061035156250e+01,1.780474090576171875e+02
1.040000057220458984e+01,1.788907165527343750e+02
1.044000053405761719e+01,1.801574859619140625e+02
1.048000049591064453e+01,1.806279907226562500e+02
1.052000045776367188e+01,1.810992279052734375e+02
1.056000041961669922e+01,1.815666351318359375e+02
1.060000038146972656e+01,1.815474243164062500e+02
1.064000034332275391e+01,1.810439758300781250e+02
1.068000030517578125e+01,1.805389556884765625e+02
1.072000026702880859e+01,1.800070800781250000e+02
1.076000022888183594e+01,1.794740905761718750e+02
1.080000019073486328e+01,1.788443603515625000e+02
1.084000015258789062e+01,1.781062011718750000e+02
1.088000011444091797e+01,1.773620605468750000e+02
1.092000007629394531e+01,1.766126861572265625e+02
1.096000003814697266e+01,1.758635711669921875e+02
1.100000000000000000e+01,1.750236816406250000e+02
1.103999996185302734e+01,1.740936431884765625e+02
1.107999992370605469e+01,1.731651916503906250e+02
1.111999988555908203e+01,1.729506378173828125e+02
1.115999984741210938e+01,1.727346343994140625e+02
1.119999980926513672e+01,1.721024475097656250e+02
1.123999977111816406e+01,1.710543212890625000e+02
1.127999973297119141e+01,1.700050048828125000e+02
1.131999969482421875e+01,1.689569702148437500e+02
1.136000061035156250e+01,1.679079284667968750e+02
1.140000057220458984e+01,1.660477752685546875e+02
1.144000053405761719e+01,1.633753356933593750e+02
1.148000049591064453e+01,1.606999359130859375e+02
1.152000045776367188e+01,1.578850555419921875e+02
1.156000041961669922e+01,1.509175872802734375e+02
1.160000038146972656e+01,1.489077148437500000e+02
1.164000034332275391e+01,1.483103027343750000e+02
1.168000030517578125e+01,1.477089691162109375e+02
1.172000026702880859e+01,1.471131286621093750e+02
1.176000022888183594e+01,1.465113067626953125e+02
1.180000019073486328e+01,1.458266448974609375e+02
1.184000015258789062e+01,1.450622406005859375e+02
1.188000011444091797e+01,1.442980804443359375e+02
1.192000007629394531e+01,1.435103302001953125e+02
1.196000003814697266e+01,1.427184143066406250e+02
1.200000000000000000e+01,1.418201293945312500e+02
1.203999996185302734e+01,1.408162536621093750e+02
1.207999992370605469e+01,1.401118316650390625e+02
1.211999988555908203e+01,1.402861328125000000e+02
1.215999984741210938e+01,1.404596862792968750e+02
1.219999980926513672e+01,1.405697174072265625e+02
1.223999977111816406e+01,1.406159973144531250e+02
1.227999973297119141e+01,1.406615600585937500e+02
1.231999969482421875e+01,1.407031402587890625e+02
1.236000061035156250e+01,1.407440948486328125e+02
1.240000057220458984e+01,1.406942749023437500e+02
1.244000053405761719e+01,1.405541381835937500e+02
1.248000049591064453e+01,1.404132537841796875e+02
1.252000045776367188e+01,1.402669677734375000e+02
1.256000041961669922e+01,1.401202239990234375e+02
1.260000038146972656e+01,1.399232482910156250e+02
1.264000034332275391e+01,1.396762237548828125e+02
1.268000030517578125e+01,1.394288330078125000e+02
1.272000026702880859e+01,1.391819152832031250e+02
1.276000022888183594e+01,1.389345245361328125e+02
1.280000019073486328e+01,1.386551666259765625e+02
1.284000015258789062e+01,1.383438873291015625e+02
1.288000011444091797e+01,1.380327606201171875e+02
1.292000007629394531e+01,1.377033233642578125e+02
1.296000003814697266e+01,1.373737030029296875e+02
1.300000000000000000e+01,1.369052734375000000e+02
1.303999996185302734e+01,1.362985687255859375e+02
1.307999992370605469e+01,1.356926116943359375e+02
1.311999988555908203e+01,1.350825042724609375e+02
1.315999984741210938e+01,1.344713745117187500e+02
1.319999980926513672e+01,1.337837982177734375e+02
1.323999977111816406e+01,1.330205993652343750e+02
1.327999973297119141e+01,1.322206268310546875e+02
1.331999969482421875e+01,1.302289886474609375e+02
1.335999965667724609e+01,1.295095520019531250e+02
1.340000057220458984e+01,1.290077972412109375e+02
1.344000053405761719e+01,1.286692047119140625e+02
1.348000049591064453e+01,1.283301544189453125e+02
1.352000045776367188e+01,1.279953994750976562e+02
1.356000041961669922e+01,1.276603012084960938e+02
1.360000038146972656e+01,1.272815246582031250e+02
1.364000034332275391e+01,1.268594284057617188e+02
1.368000030517578125e+01,1.264366912841796875e+02
1.372000026702880859e+01,1.260170211791992188e+02
1.376000022888183594e+01,1.255970001220703125e+02
1.380000019073486328e+01,1.251436233520507812e+02
1.384000015258789062e+01,1.242262191772460938e+02
1.388000011444091797e+01,1.237498321533203125e+02
1.392000007629394531e+01,1.234837570190429688e+02
1.396000003814697266e+01,1.232181472778320312e+02
1.400000000000000000e+01,1.229763641357421875e+02
1.403999996185302734e+01,1.227584381103515625e+02
1.407999992370605469e+01,1.225401153564453125e+02
1.411999988555908203e+01,1.223289031982421875e+02
1.415999984741210938e+01,1.221173248291015625e+02
1.419999980926513672e+01,1.219018096923828125e+02
1.423999977111816406e+01,1.216823730468750000e+02
1.427999973297119141e+01,1.214625701904296875e+02
1.431999969482421875e+01,1.212570877075195312e+02
1.435999965667724609e+01,1.210512771606445312e+02
1.439999961853027344e+01,1.208314971923828125e+02
1.444000053405761719e+01,1.205940093994140625e+02
1.448000049591064453e+01,1.203564300537109375e+02
1.452000045776367188e+01,1.201028289794921875e+02
1.456000041961669922e+01,1.198489685058593750e+02
1.460000038146972656e+01,1.195921554565429688e+02
1.464000034332275391e+01,1.193323059082031250e+02
1.468000030517578125e+01,1.190722961425781250e+02
1.472000026702880859e+01,1.188087310791015625e+02
1.476000022888183594e+01,1.185450057983398438e+02
1.480000019073486328e+01,1.182789611816406250e+02
1.484000015258789062e+01,1.180105209350585938e+02
1.488000011444091797e+01,1.177416687011718750e+02
1.492000007629394531e+01,1.174839706420898438e+02
1.496000003814697266e+01,1.172260589599609375e+02
1.500000000000000000e+01,1.169682159423828125e+02
1.503999996185302734e+01,1.167103729248046875e+02
1.507999992370605469e+01,1.164522628784179688e+02
1.511999988555908203e+01,1.161873855590820312e+02
1.515999984741210938e+01,1.159223327636718750e+02
1.519999980926513672e+01,1.156534118652343750e+02
1.523999977111816406e+01,1.153805923461914062e+02
1.527999973297119141e+01,1.151075592041015625e+02
1.531999969482421875e+01,1.148347625732421875e+02
1.535999965667724609e+01,1.145617523193359375e+02
1.539999961853027344e+01,1.142893066406250000e+02
1.544000053405761719e+01,1.140174179077148438e+02
1.548000049591064453e+01,1.137453384399414062e+02
1.552000045776367188e+01,1.134805221557617188e+02
1.556000041961669922e+01,1.132154312133789062e+02
1.560000038146972656e+01,1.129570159912109375e+02
1.564000034332275391e+01,1.127052841186523438e+02
1.568000030517578125e+01,1.124532394409179688e+02
1.572000026702880859e+01,1.121964263916015625e+02
1.576000022888183594e+01,1.119394836425781250e+02
1.580000019073486328e+01,1.116761016845703125e+02
1.584000015258789062e+01,1.114062347412109375e+02
1.588000011444091797e+01,1.111338806152343750e+02
1.592000007629394531e+01,1.108786087036132812e+02
1.596000003814697266e+01,1.106229400634765625e+02
1.600000000000000000e+01,1.103657684326171875e+02
1.603999900817871094e+01,1.101070785522460938e+02
1.607999992370605469e+01,1.098480453491210938e+02
1.611999893188476562e+01,1.095997924804687500e+02
1.615999984741210938e+01,1.093510894775390625e+02
1.619999885559082031e+01,1.091020202636718750e+02
1.623999977111816406e+01,1.088525314331054688e+02
1.627999877929687500e+01,1.086026687622070312e+02
1.631999969482421875e+01,1.083269882202148438e+02
1.635999870300292969e+01,1.080510787963867188e+02
1.639999961853027344e+01,1.077749099731445312e+02
1.643999862670898438e+01,1.074985427856445312e+02
1.647999954223632812e+01,1.072218399047851562e+02
1.652000045776367188e+01,1.069586029052734375e+02
1.655999946594238281e+01,1.066951217651367188e+02
1.660000038146972656e+01,1.064313812255859375e+02
1.663999938964843750e+01,1.061673355102539062e+02
1.668000030517578125e+01,1.059030075073242188e+02
1.671999931335449219e+01,1.056452026367187500e+02
1.676000022888183594e+01,1.053870391845703125e+02
1.679999923706054688e+01,1.051285781860351562e+02
1.684000015258789062e+01,1.048697891235351562e+02
1.687999916076660156e+01,1.046106872558593750e+02
1.692000007629394531e+01,1.043339157104492188e+02
1.695999908447265625e+01,1.040569992065429688e+02
1.700000000000000000e+01,1.037794799804687500e+02
1.703999900817871094e+01,1.035013427734375000e+02
1.707999992370605469e+01,1.032231140136718750e+02
1.711999893188476562e+01,1.029504928588867188e+02
1.715999984741210938e+01,1.026777343750000000e+02
1.719999885559082031e+01,1.024049530029296875e+02
1.723999977111816406e+01,1.021321029663085938e+02
1.727999877929687500e+01,1.018173904418945312e+02
1.731999969482421875e+01,1.015168685913085938e+02
1.735999870300292969e+01,1.012164764404296875e+02
1.739999961853027344e+01,1.009161071777343750e+02
1.743999862670898438e+01,1.006153869628906250e+02
1.747999954223632812e+01,1.003135910034179688e+02
