# Start of Energy Bin (keV), Effective Area (cm^2)
1.600000023841857910e+00,8.258929848670959473e-01
1.639999985694885254e+00,1.148460149765014648e+00
1.680000066757202148e+00,1.591046452522277832e+00
1.720000028610229492e+00,2.196485280990600586e+00
1.759999990463256836e+00,2.978331565856933594e+00
1.799999952316284180e+00,3.760789632797241211e+00
1.840000033378601074e+00,2.089685440063476562e+00
1.879999995231628418e+00,2.667944192886352539e+00
1.920000076293945312e+00,3.480214595794677734e+00
1.960000038146972656e+00,4.387586116790771484e+00
2.000000000000000000e+00,5.429166793823242188e+00
2.039999961853027344e+00,6.656341075897216797e+00
2.079999923706054688e+00,8.149062156677246094e+00
2.119999885559082031e+00,7.421895980834960938e+00
2.160000085830688477e+00,8.623981475830078125e+00
2.200000047683715820e+00,9.001367568969726562e+00
2.240000009536743164e+00,1.031351375579833984e+01
2.279999971389770508e+00,1.184930133819580078e+01
2.319999933242797852e+00,1.373738384246826172e+01
2.360000133514404297e+00,1.557222366333007812e+01
2.400000095367431641e+00,1.733324050903320312e+01
2.440000057220458984e+00,1.932805442810058594e+01
2.480000019073486328e+00,2.165942382812500000e+01
2.519999980926513672e+00,2.446763992309570312e+01
2.559999942779541016e+00,2.755504035949707031e+01
2.599999904632568359e+00,3.035600852966308594e+01
2.639999866485595703e+00,3.094779777526855469e+01
2.679999828338623047e+00,3.375679397583007812e+01
2.720000028610229492e+00,3.678344726562500000e+01
2.759999990463256836e+00,4.005821990966796875e+01
2.799999952316284180e+00,4.358634948730468750e+01
2.840000152587890625e+00,4.723277664184570312e+01
2.880000114440917969e+00,5.037806320190429688e+01
2.920000076293945312e+00,5.367176055908203125e+01
2.960000038146972656e+00,5.716134643554687500e+01
3.000000000000000000e+00,6.097061538696289062e+01
3.039999961853027344e+00,6.326608657836914062e+01
3.079999923706054688e+00,6.720841217041015625e+01
3.119999885559082031e+00,7.130556488037109375e+01
3.159999847412109375e+00,7.474417114257812500e+01
3.199999809265136719e+00,7.830239105224609375e+01
3.240000009536743164e+00,8.198588562011718750e+01
3.279999971389770508e+00,8.465859222412109375e+01
3.319999933242797852e+00,8.914835357666015625e+01
3.360000133514404297e+00,9.384138488769531250e+01
3.400000095367431641e+00,9.873118591308593750e+01
3.440000057220458984e+00,1.026259155273437500e+02
3.480000019073486328e+00,1.055106811523437500e+02
3.519999980926513672e+00,1.017242126464843750e+02
3.559999942779541016e+00,1.045888671875000000e+02
3.599999904632568359e+00,1.075631866455078125e+02
3.639999866485595703e+00,1.105810241699218750e+02
3.679999828338623047e+00,1.136465072631835938e+02
3.719999790191650391e+00,1.132449493408203125e+02
3.759999752044677734e+00,1.164057083129882812e+02
3.800000190734863281e+00,1.191775207519531250e+02
3.840000152587890625e+00,1.216804199218750000e+02
3.880000114440917969e+00,1.241923675537109375e+02
3.920000076293945312e+00,1.273082275390625000e+02
3.960000038146972656e+00,1.306598205566406250e+02
4.000000000000000000e+00,1.321397247314453125e+02
4.039999961853027344e+00,1.354237213134765625e+02
4.079999923706054688e+00,1.387482757568359375e+02
4.119999885559082031e+00,1.421149139404296875e+02
4.159999847412109375e+00,1.454847412109375000e+02
4.199999809265136719e+00,1.483792877197265625e+02
4.239999771118164062e+00,1.512913360595703125e+02
4.279999732971191406e+00,1.542285156250000000e+02
4.320000171661376953e+00,1.506992797851562500e+02
4.360000133514404297e+00,1.513251342773437500e+02
4.400000095367431641e+00,1.538739013671875000e+02
4.440000057220458984e+00,1.564396667480468750e+02
4.480000019073486328e+00,1.590364379882812500e+02
4.519999980926513672e+00,1.616539916992187500e+02
4.559999942779541016e+00,1.642698364257812500e+02
4.599999904632568359e+00,1.620618743896484375e+02
4.639999866485595703e+00,1.644416503906250000e+02
4.679999828338623047e+00,1.665960388183593750e+02
4.719999790191650391e+00,1.687498931884765625e+02
4.759999752044677734e+00,1.709057922363281250e+02
4.799999713897705078e+00,1.730638580322265625e+02
4.840000152587890625e+00,1.752129364013671875e+02
4.880000114440917969e+00,1.773590545654296875e+02
4.920000076293945312e+00,1.772781524658203125e+02
4.960000038146972656e+00,1.794247283935546875e+02
5.000000000000000000e+00,1.815243682861328125e+02
5.039999961853027344e+00,1.837271881103515625e+02
5.079999923706054688e+00,1.857893676757812500e+02
5.119999885559082031e+00,1.878455047607421875e+02
5.159999847412109375e+00,1.898970642089843750e+02
5.199999809265136719e+00,1.919414672851562500e+02
5.239999771118164062e+00,1.939806213378906250e+02
5.279999732971191406e+00,1.960201416015625000e+02
5.320000171661376953e+00,1.980596923828125000e+02
5.360000133514404297e+00,2.000995788574218750e+02
5.400000095367431641e+00,2.021357574462890625e+02
5.440000057220458984e+00,2.041661071777343750e+02
5.480000019073486328e+00,2.061949157714843750e+02
5.519999980926513672e+00,2.082230224609375000e+02
5.559999942779541016e+00,2.101058959960937500e+02
5.599999904632568359e+00,2.118352355957031250e+02
5.639999866485595703e+00,2.135584564208984375e+02
5.679999828338623047e+00,2.152771759033203125e+02
5.719999790191650391e+00,2.169913482666015625e+02
5.759999752044677734e+00,2.187012329101562500e+02
5.799999713897705078e+00,2.203888702392578125e+02
5.839999675750732422e+00,2.220554809570312500e+02
5.879999637603759766e+00,2.237174530029296875e+02
5.919999599456787109e+00,2.253755798339843750e+02
5.960000038146972656e+00,2.270289459228515625e+02
6.000000000000000000e+00,2.285531921386718750e+02
6.039999961853027344e+00,2.299453430175781250e+02
6.079999923706054688e+00,2.313306121826171875e+02
6.119999885559082031e+00,2.325981903076171875e+02
6.159999847412109375e+00,2.337832489013671875e+02
6.199999809265136719e+00,2.349693603515625000e+02
6.239999771118164062e+00,2.361572265625000000e+02
6.279999732971191406e+00,2.373379821777343750e+02
6.319999694824218750e+00,2.385112457275390625e+02
6.359999656677246094e+00,2.396773071289062500e+02
6.399999618530273438e+00,2.408310699462890625e+02
6.439999580383300781e+00,2.419728546142578125e+02
6.480000019073486328e+00,2.431079406738281250e+02
6.519999980926513672e+00,2.442366027832031250e+02
6.559999942779541016e+00,2.453589782714843750e+02
6.599999904632568359e+00,2.464700469970703125e+02
6.639999866485595703e+00,2.475699310302734375e+02
6.679999828338623047e+00,2.486637878417968750e+02
6.719999790191650391e+00,2.497004699707031250e+02
6.759999752044677734e+00,2.506238098144531250e+02
6.799999713897705078e+00,2.515303344726562500e+02
6.839999675750732422e+00,2.524204711914062500e+02
6.879999637603759766e+00,2.533043518066406250e+02
6.919999599456787109e+00,2.541824188232421875e+02
6.959999561309814453e+00,2.550544433593750000e+02
7.000000000000000000e+00,2.558666687011718750e+02
7.039999961853027344e+00,2.566184692382812500e+02
7.079999923706054688e+00,2.573656616210937500e+02
7.119999885559082031e+00,2.567408752441406250e+02
7.159999847412109375e+00,2.574634704589843750e+02
7.199999809265136719e+00,2.581923217773437500e+02
7.239999771118164062e+00,2.589282836914062500e+02
7.279999732971191406e+00,2.596587219238281250e+02
7.319999694824218750e+00,2.603838500976562500e+02
7.359999656677246094e+00,2.611034545898437500e+02
7.399999618530273438e+00,2.618074035644531250e+02
7.439999580383300781e+00,2.624958496093750000e+02
7.479999542236328125e+00,2.631793518066406250e+02
7.519999980926513672e+00,2.638571472167968750e+02
7.559999942779541016e+00,2.645299072265625000e+02
7.599999904632568359e+00,2.651887207031250000e+02
7.639999866485595703e+00,2.658332519531250000e+02
7.679999828338623047e+00,2.664732971191406250e+02
7.719999790191650391e+00,2.671093139648437500e+02
7.759999752044677734e+00,2.677413330078125000e+02
7.799999713897705078e+00,2.683597717285156250e+02
7.839999675750732422e+00,2.689638366699218750e+02
7.879999637603759766e+00,2.695636596679687500e+02
7.919999599456787109e+00,2.701591796875000000e+02
7.959999561309814453e+00,2.707504882812500000e+02
7.999999523162841797e+00,2.713022460937500000e+02
8.039999961853027344e+00,2.718145751953125000e+02
8.079999923706054688e+00,2.723229064941406250e+02
8.119999885559082031e+00,2.728277282714843750e+02
8.159999847412109375e+00,2.732550354003906250e+02
8.199999809265136719e+00,2.736576843261718750e+02
8.239999771118164062e+00,2.740630187988281250e+02
8.279999732971191406e+00,2.745456542968750000e+02
8.319999694824218750e+00,2.750264587402343750e+02
8.359999656677246094e+00,2.755037841796875000e+02
8.399999618530273438e+00,2.759464416503906250e+02
8.439999580383300781e+00,2.763551635742187500e+02
8.479999542236328125e+00,2.767601928710937500e+02
8.520000457763671875e+00,2.771612243652343750e+02
8.560000419616699219e+00,2.775587158203125000e+02
8.600000381469726562e+00,2.779075622558593750e+02
8.640000343322753906e+00,2.782072753906250000e+02
8.680000305175781250e+00,2.785034179687500000e+02
8.720000267028808594e+00,2.787976074218750000e+02
8.760000228881835938e+00,2.790882568359375000e+02
8.800000190734863281e+00,2.793209228515625000e+02
8.840000152587890625e+00,2.794954528808593750e+02
8.880000114440917969e+00,2.796660766601562500e+02
8.920000076293945312e+00,2.798501281738281250e+02
8.960000038146972656e+00,2.799897766113281250e+02
9.000000000000000000e+00,2.800467529296875000e+02
9.039999961853027344e+00,2.800434875488281250e+02
9.079999923706054688e+00,2.800363159179687500e+02
9.119999885559082031e+00,2.800270385742187500e+02
9.159999847412109375e+00,2.801124572753906250e+02
9.199999809265136719e+00,2.801391601562500000e+02
9.239999771118164062e+00,2.801069030761718750e+02
9.279999732971191406e+00,2.800707397460937500e+02
9.319999694824218750e+00,2.800332031250000000e+02
9.359999656677246094e+00,2.799916992187500000e+02
9.399999618530273438e+00,2.798851928710937500e+02
9.439999580383300781e+00,2.797136535644531250e+02
9.479999542236328125e+00,2.795381164550781250e+02
9.519999504089355469e+00,2.793755798339843750e+02
9.560000419616699219e+00,2.792094421386718750e+02
9.600000381469726562e+00,2.788241577148437500e+02
9.640000343322753906e+00,2.782846679687500000e+02
9.680000305175781250e+00,2.779360351562500000e+02
9.720000267028808594e+00,2.775665893554687500e+02
9.760000228881835938e+00,2.771932373046875000e+02
9.800000190734863281e+00,2.764146118164062500e+02
9.840000152587890625e+00,2.752224426269531250e+02
9.880000114440917969e+00,2.740001831054687500e+02
9.920000076293945312e+00,2.727951049804687500e+02
9.960000038146972656e+00,2.719551391601562500e+02
1.000000000000000000e+01,2.684674987792968750e+02
1.003999996185302734e+01,2.620679321289062500e+02
1.007999992370605469e+01,2.556604461669921875e+02
1.011999988555908203e+01,2.492502593994140625e+02
1.015999984741210938e+01,2.428336639404296875e+02
1.019999980926513672e+01,2.357917022705078125e+02
1.023999977111816406e+01,2.359878845214843750e+02
1.027999973297119141e+01,2.361759796142578125e+02
1.032000064849853516e+01,2.363491973876953125e+02
1.036000061035156250e+01,2.365147094726562500e+02
1.040000057220458984e+01,2.375543823242187500e+02
1.044000053405761719e+01,2.391297912597656250e+02
1.048000049591064453e+01,2.396523742675781250e+02
1.052000045776367188e+01,2.401574401855468750e+02
1.056000041961669922e+01,2.406575622558593750e+02
1.060000038146972656e+01,2.405838623046875000e+02
1.064000034332275391e+01,2.399396209716796875e+02
1.068000030517578125e+01,2.392937774658203125e+02
1.072000026702880859e+01,2.386584625244140625e+02
1.076000022888183594e+01,2.380218353271484375e+02
1.080000019073486328e+01,2.372750244140625000e+02
1.084000015258789062e+01,2.364022674560546875e+02
1.088000011444091797e+01,2.355213470458984375e+02
1.092000007629394531e+01,2.346312713623046875e+02
1.096000003814697266e+01,2.337413330078125000e+02
1.100000000000000000e+01,2.327484283447265625e+02
1.103999996185302734e+01,2.316529235839843750e+02
1.107999992370605469e+01,2.305587463378906250e+02
1.111999988555908203e+01,2.303722076416015625e+02
1.115999984741210938e+01,2.301834716796875000e+02
1.119999980926513672e+01,2.295051574707031250e+02
1.123999977111816406e+01,2.283361511230468750e+02
1.127999973297119141e+01,2.271634521484375000e+02
1.131999969482421875e+01,2.259914550781250000e+02
1.136000061035156250e+01,2.248159790039062500e+02
1.140000057220458984e+01,2.225176239013671875e+02
1.144000053405761719e+01,2.190928192138671875e+02
1.148000049591064453e+01,2.156592102050781250e+02
1.152000045776367188e+01,2.120197753906250000e+02
1.156000041961669922e+01,2.026563415527343750e+02
1.160000038146972656e+01,1.999521942138671875e+02
1.164000034332275391e+01,1.991533660888671875e+02
1.168000030517578125e+01,1.983491363525390625e+02
1.172000026702880859e+01,1.975474395751953125e+02
1.176000022888183594e+01,1.967376556396484375e+02
1.180000019073486328e+01,1.958605651855468750e+02
1.184000015258789062e+01,1.949198913574218750e+02
1.188000011444091797e+01,1.939788208007812500e+02
1.192000007629394531e+01,1.930195770263671875e+02
1.196000003814697266e+01,1.920538482666015625e+02
1.200000000000000000e+01,1.909460144042968750e+02
1.203999996185302734e+01,1.896968994140625000e+02
1.207999992370605469e+01,1.888106536865234375e+02
1.211999988555908203e+01,1.889808959960937500e+02
1.215999984741210938e+01,1.891500549316406250e+02
1.219999980926513672e+01,1.892518920898437500e+02
1.223999977111816406e+01,1.892861022949218750e+02
1.227999973297119141e+01,1.893193359375000000e+02
1.231999969482421875e+01,1.893509674072265625e+02
1.236000061035156250e+01,1.893817138671875000e+02
1.240000057220458984e+01,1.893039703369140625e+02
1.244000053405761719e+01,1.891183166503906250e+02
1.248000049591064453e+01,1.889316558837890625e+02
1.252000045776367188e+01,1.887569427490234375e+02
1.256000041961669922e+01,1.885815887451171875e+02
1.260000038146972656e+01,1.883408203125000000e+02
1.264000034332275391e+01,1.880348815917968750e+02
1.268000030517578125e+01,1.877284088134765625e+02
1.272000026702880859e+01,1.874099884033203125e+02
1.276000022888183594e+01,1.870908813476562500e+02
1.280000019073486328e+01,1.867274475097656250e+02
1.284000015258789062e+01,1.863197326660156250e+02
1.288000011444091797e+01,1.859122314453125000e+02
1.292000007629394531e+01,1.855025329589843750e+02
1.296000003814697266e+01,1.850924682617187500e+02
1.300000000000000000e+01,1.844850616455078125e+02
1.303999996185302734e+01,1.836809387207031250e+02
1.307999992370605469e+01,1.828777770996093750e+02
1.311999988555908203e+01,1.820836639404296875e+02
1.315999984741210938e+01,1.812878723144531250e+02
1.319999980926513672e+01,1.803785247802734375e+02
1.323999977111816406e+01,1.793567504882812500e+02
1.327999973297119141e+01,1.782209320068359375e+02
1.331999969482421875e+01,1.754583587646484375e+02
1.335999965667724609e+01,1.743876647949218750e+02
1.340000057220458984e+01,1.736310882568359375e+02
1.344000053405761719e+01,1.731224365234375000e+02
1.348000049591064453e+01,1.726134338378906250e+02
1.352000045776367188e+01,1.721074523925781250e+02
1.356000041961669922e+01,1.716013183593750000e+02
1.360000038146972656e+01,1.710355834960937500e+02
1.364000034332275391e+01,1.704108276367187500e+02
1.368000030517578125e+01,1.697855834960937500e+02
1.372000026702880859e+01,1.691595764160156250e+02
1.376000022888183594e+01,1.685334777832031250e+02
1.380000019073486328e+01,1.678572998046875000e+02
1.384000015258789062e+01,1.665537261962890625e+02
1.388000011444091797e+01,1.658560943603515625e+02
1.392000007629394531e+01,1.654577484130859375e+02
1.396000003814697266e+01,1.650602264404296875e+02
1.400000000000000000e+01,1.646997375488281250e+02
1.403999996185302734e+01,1.643761901855468750e+02
1.407999992370605469e+01,1.640522613525390625e+02
1.411999988555908203e+01,1.637317962646484375e+02
1.415999984741210938e+01,1.634109497070312500e+02
1.419999980926513672e+01,1.630864868164062500e+02
1.423999977111816406e+01,1.627583465576171875e+02
1.427999973297119141e+01,1.624298553466796875e+02
1.431999969482421875e+01,1.620971679687500000e+02
1.435999965667724609e+01,1.617642364501953125e+02
1.439999961853027344e+01,1.614131469726562500e+02
1.444000053405761719e+01,1.610389556884765625e+02
1.448000049591064453e+01,1.606648864746093750e+02
1.452000045776367188e+01,1.602911987304687500e+02
1.456000041961669922e+01,1.599173278808593750e+02
1.460000038146972656e+01,1.595393524169921875e+02
1.464000034332275391e+01,1.591571197509765625e+02
1.468000030517578125e+01,1.587748565673828125e+02
1.472000026702880859e+01,1.583994140625000000e+02
1.476000022888183594e+01,1.580238800048828125e+02
1.480000019073486328e+01,1.576456146240234375e+02
1.484000015258789062e+01,1.572645568847656250e+02
1.488000011444091797e+01,1.568830566406250000e+02
1.492000007629394531e+01,1.564945678710937500e+02
1.496000003814697266e+01,1.561060028076171875e+02
1.500000000000000000e+01,1.557167053222656250e+02
1.503999996185302734e+01,1.553266143798828125e+02
1.507999992370605469e+01,1.549363708496093750e+02
1.511999988555908203e+01,1.545475921630859375e+02
1.515999984741210938e+01,1.541587829589843750e+02
1.519999980926513672e+01,1.537653045654296875e+02
1.523999977111816406e+01,1.533671722412109375e+02
1.527999973297119141e+01,1.529689178466796875e+02
1.531999969482421875e+01,1.525809783935546875e+02
1.535999965667724609e+01,1.521928558349609375e+02
1.539999961853027344e+01,1.518051147460937500e+02
1.544000053405761719e+01,1.514177551269531250e+02
1.548000049591064453e+01,1.510302734375000000e+02
1.552000045776367188e+01,1.506326446533203125e+02
1.556000041961669922e+01,1.502348327636718750e+02
1.560000038146972656e+01,1.498458404541015625e+02
1.564000034332275391e+01,1.494655761718750000e+02
1.568000030517578125e+01,1.490851440429687500e+02
1.572000026702880859e+01,1.487313232421875000e+02
1.576000022888183594e+01,1.483777160644531250e+02
1.580000019073486328e+01,1.480160369873046875e+02
1.584000015258789062e+01,1.476461944580078125e+02
1.588000011444091797e+01,1.472731323242187500e+02
1.592000007629394531e+01,1.469224548339843750e+02
1.596000003814697266e+01,1.465713043212890625e+02
1.600000000000000000e+01,1.462206420898437500e+02
1.603999900817871094e+01,1.458704376220703125e+02
1.607999992370605469e+01,1.455198059082031250e+02
1.611999893188476562e+01,1.451585388183593750e+02
1.615999984741210938e+01,1.447968444824218750e+02
1.619999885559082031e+01,1.444348449707031250e+02
1.623999977111816406e+01,1.440724182128906250e+02
1.627999877929687500e+01,1.437097167968750000e+02
1.631999969482421875e+01,1.433461456298828125e+02
1.635999870300292969e+01,1.429822387695312500e+02
1.639999961853027344e+01,1.426180419921875000e+02
1.643999862670898438e+01,1.422535400390625000e+02
1.647999954223632812e+01,1.418886413574218750e+02
1.652000045776367188e+01,1.415287322998046875e+02
1.655999946594238281e+01,1.411685791015625000e+02
1.660000038146972656e+01,1.408081359863281250e+02
1.663999938964843750e+01,1.404473724365234375e+02
1.668000030517578125e+01,1.400863189697265625e+02
1.671999931335449219e+01,1.397240753173828125e+02
1.676000022888183594e+01,1.393615264892578125e+02
1.679999923706054688e+01,1.389986877441406250e+02
1.684000015258789062e+01,1.386355285644531250e+02
1.687999916076660156e+01,1.382721099853515625e+02
1.692000007629394531e+01,1.379095916748046875e+02
1.695999908447265625e+01,1.375468292236328125e+02
1.700000000000000000e+01,1.371909027099609375e+02
1.703999900817871094e+01,1.368416595458984375e+02
1.707999992370605469e+01,1.364922790527343750e+02
1.711999893188476562e+01,1.361495666503906250e+02
1.715999984741210938e+01,1.358066406250000000e+02
1.719999885559082031e+01,1.354636230468750000e+02
1.723999977111816406e+01,1.351204528808593750e+02
1.727999877929687500e+01,1.347405853271484375e+02
1.731999969482421875e+01,1.343424682617187500e+02
1.735999870300292969e+01,1.339445800781250000e+02
1.739999961853027344e+01,1.335467834472656250e+02
1.743999862670898438e+01,1.331486206054687500e+02
1.747999954223632812e+01,1.327490844726562500e+02
