# Start of Energy Bin (keV), Effective Area (cm^2)
1.600000023841857910e+00,1.155555844306945801e+00
1.639999985694885254e+00,1.581417798995971680e+00
1.680000066757202148e+00,2.158941030502319336e+00
1.720000028610229492e+00,2.940546512603759766e+00
1.759999990463256836e+00,3.937894821166992188e+00
1.799999952316284180e+00,4.918102264404296875e+00
1.840000033378601074e+00,2.706140995025634766e+00
1.879999995231628418e+00,3.419385433197021484e+00
1.920000076293945312e+00,4.411873340606689453e+00
1.960000038146972656e+00,5.505256652832031250e+00
2.000000000000000000e+00,6.745066642761230469e+00
2.039999961853027344e+00,8.191343307495117188e+00
2.079999923706054688e+00,9.938993453979492188e+00
2.119999885559082031e+00,8.866729736328125000e+00
2.160000085830688477e+00,1.023397922515869141e+01
2.200000047683715820e+00,1.056577301025390625e+01
2.240000009536743164e+00,1.203099155426025391e+01
2.279999971389770508e+00,1.374179840087890625e+01
2.319999933242797852e+00,1.584037017822265625e+01
2.360000133514404297e+00,1.785795974731445312e+01
2.400000095367431641e+00,1.977519035339355469e+01
2.440000057220458984e+00,2.194728088378906250e+01
2.480000019073486328e+00,2.449076080322265625e+01
2.519999980926513672e+00,2.756654548645019531e+01
2.559999942779541016e+00,3.094049453735351562e+01
2.599999904632568359e+00,3.397887420654296875e+01
2.639999866485595703e+00,3.443249511718750000e+01
2.679999828338623047e+00,3.745629119873046875e+01
2.720000028610229492e+00,4.071010589599609375e+01
2.759999990463256836e+00,4.422743225097656250e+01
2.799999952316284180e+00,4.801216506958007812e+01
2.840000152587890625e+00,5.191320419311523438e+01
2.880000114440917969e+00,5.525237274169921875e+01
2.920000076293945312e+00,5.874440002441406250e+01
2.960000038146972656e+00,6.244283676147460938e+01
3.000000000000000000e+00,6.654356384277343750e+01
3.039999961853027344e+00,6.896238708496093750e+01
3.079999923706054688e+00,7.325483703613281250e+01
3.119999885559082031e+00,7.772007751464843750e+01
3.159999847412109375e+00,8.147229766845703125e+01
3.199999809265136719e+00,8.536007690429687500e+01
3.240000009536743164e+00,8.938958740234375000e+01
3.279999971389770508e+00,9.226765441894531250e+01
3.319999933242797852e+00,9.664832305908203125e+01
3.360000133514404297e+00,1.012047042846679688e+02
3.400000095367431641e+00,1.059334640502929688e+02
3.440000057220458984e+00,1.099235916137695312e+02
3.480000019073486328e+00,1.129507598876953125e+02
3.519999980926513672e+00,1.131397705078125000e+02
3.559999942779541016e+00,1.162129058837890625e+02
3.599999904632568359e+00,1.193531265258789062e+02
3.639999866485595703e+00,1.225308456420898438e+02
3.679999828338623047e+00,1.257558822631835938e+02
3.719999790191650391e+00,1.274877014160156250e+02
3.759999752044677734e+00,1.308167877197265625e+02
3.800000190734863281e+00,1.337275695800781250e+02
3.840000152587890625e+00,1.363266906738281250e+02
3.880000114440917969e+00,1.389377593994140625e+02
3.920000076293945312e+00,1.421364898681640625e+02
3.960000038146972656e+00,1.455665740966796875e+02
4.000000000000000000e+00,1.481511230468750000e+02
4.039999961853027344e+00,1.515049743652343750e+02
4.079999923706054688e+00,1.549010620117187500e+02
4.119999885559082031e+00,1.583402404785156250e+02
4.159999847412109375e+00,1.617778930664062500e+02
4.199999809265136719e+00,1.646832427978515625e+02
4.239999771118164062e+00,1.676045989990234375e+02
4.279999732971191406e+00,1.705486755371093750e+02
4.320000171661376953e+00,1.706591949462890625e+02
4.360000133514404297e+00,1.724203033447265625e+02
4.400000095367431641e+00,1.749883728027343750e+02
4.440000057220458984e+00,1.775683288574218750e+02
4.480000019073486328e+00,1.801676330566406250e+02
4.519999980926513672e+00,1.827813720703125000e+02
4.559999942779541016e+00,1.854015502929687500e+02
4.599999904632568359e+00,1.856613159179687500e+02
4.639999866485595703e+00,1.878498382568359375e+02
4.679999828338623047e+00,1.899391326904296875e+02
4.719999790191650391e+00,1.920317230224609375e+02
4.759999752044677734e+00,1.941271514892578125e+02
4.799999713897705078e+00,1.962201538085937500e+02
4.840000152587890625e+00,1.983064270019531250e+02
4.880000114440917969e+00,2.003913269042968750e+02
4.920000076293945312e+00,2.014837799072265625e+02
4.960000038146972656e+00,2.035717468261718750e+02
5.000000000000000000e+00,2.056093597412109375e+02
5.039999961853027344e+00,2.077653808593750000e+02
5.079999923706054688e+00,2.097654724121093750e+02
5.119999885559082031e+00,2.117635803222656250e+02
5.159999847412109375e+00,2.137595214843750000e+02
5.199999809265136719e+00,2.157500305175781250e+02
5.239999771118164062e+00,2.177368621826171875e+02
5.279999732971191406e+00,2.197246398925781250e+02
5.320000171661376953e+00,2.217142181396484375e+02
5.360000133514404297e+00,2.237052459716796875e+02
5.400000095367431641e+00,2.256940307617187500e+02
5.440000057220458984e+00,2.276790313720703125e+02
5.480000019073486328e+00,2.296651306152343750e+02
5.519999980926513672e+00,2.316543579101562500e+02
5.559999942779541016e+00,2.334843444824218750e+02
5.599999904632568359e+00,2.351473083496093750e+02
5.639999866485595703e+00,2.368069458007812500e+02
5.679999828338623047e+00,2.384643707275390625e+02
5.719999790191650391e+00,2.401184692382812500e+02
5.759999752044677734e+00,2.417699584960937500e+02
5.799999713897705078e+00,2.433997344970703125e+02
5.839999675750732422e+00,2.450090332031250000e+02
5.879999637603759766e+00,2.466163482666015625e+02
5.919999599456787109e+00,2.482233886718750000e+02
5.960000038146972656e+00,2.498283386230468750e+02
6.000000000000000000e+00,2.512911376953125000e+02
6.039999961853027344e+00,2.526088256835937500e+02
6.079999923706054688e+00,2.539220275878906250e+02
6.119999885559082031e+00,2.551080017089843750e+02
6.159999847412109375e+00,2.562068481445312500e+02
6.199999809265136719e+00,2.573103637695312500e+02
6.239999771118164062e+00,2.584182128906250000e+02
6.279999732971191406e+00,2.595212097167968750e+02
6.319999694824218750e+00,2.606186218261718750e+02
6.359999656677246094e+00,2.617109985351562500e+02
6.399999618530273438e+00,2.627933654785156250e+02
6.439999580383300781e+00,2.638659362792968750e+02
6.480000019073486328e+00,2.649334716796875000e+02
6.519999980926513672e+00,2.659985351562500000e+02
6.559999942779541016e+00,2.670590209960937500e+02
6.599999904632568359e+00,2.681106262207031250e+02
6.639999866485595703e+00,2.691531372070312500e+02
6.679999828338623047e+00,2.701918334960937500e+02
6.719999790191650391e+00,2.711699218750000000e+02
6.759999752044677734e+00,2.720278320312500000e+02
6.799999713897705078e+00,2.728708190917968750e+02
6.839999675750732422e+00,2.736993408203125000e+02
6.879999637603759766e+00,2.745236511230468750e+02
6.919999599456787109e+00,2.753435058593750000e+02
6.959999561309814453e+00,2.761591186523437500e+02
7.000000000000000000e+00,2.769027709960937500e+02
7.039999961853027344e+00,2.775737915039062500e+02
7.079999923706054688e+00,2.782417297363281250e+02
7.119999885559082031e+00,2.774296264648437500e+02
7.159999847412109375e+00,2.780766296386718750e+02
7.199999809265136719e+00,2.787382507324218750e+02
7.239999771118164062e+00,2.794145812988281250e+02
7.279999732971191406e+00,2.800870666503906250e+02
7.319999694824218750e+00,2.807557983398437500e+02
7.359999656677246094e+00,2.814204101562500000e+02
7.399999618530273438e+00,2.820712585449218750e+02
7.439999580383300781e+00,2.827079467773437500e+02
7.479999542236328125e+00,2.833416137695312500e+02
7.519999980926513672e+00,2.839713439941406250e+02
7.559999942779541016e+00,2.845975952148437500e+02
7.599999904632568359e+00,2.852130737304687500e+02
7.639999866485595703e+00,2.858177185058593750e+02
7.679999828338623047e+00,2.864188232421875000e+02
7.719999790191650391e+00,2.870170898437500000e+02
7.759999752044677734e+00,2.876126708984375000e+02
7.799999713897705078e+00,2.881985473632812500e+02
7.839999675750732422e+00,2.887745971679687500e+02
7.879999637603759766e+00,2.893480224609375000e+02
7.919999599456787109e+00,2.899183349609375000e+02
7.959999561309814453e+00,2.904856567382812500e+02
7.999999523162841797e+00,2.910301208496093750e+02
8.039999961853027344e+00,2.915513000488281250e+02
8.079999923706054688e+00,2.920699157714843750e+02
8.119999885559082031e+00,2.925861206054687500e+02
8.159999847412109375e+00,2.930202941894531250e+02
8.199999809265136719e+00,2.934407653808593750e+02
8.239999771118164062e+00,2.938621215820312500e+02
8.279999732971191406e+00,2.943250732421875000e+02
8.319999694824218750e+00,2.947855834960937500e+02
8.359999656677246094e+00,2.952437744140625000e+02
8.399999618530273438e+00,2.956838378906250000e+02
8.439999580383300781e+00,2.961059570312500000e+02
8.479999542236328125e+00,2.965253601074218750e+02
8.520000457763671875e+00,2.969430847167968750e+02
8.560000419616699219e+00,2.973583984375000000e+02
8.600000381469726562e+00,2.977471618652343750e+02
8.640000343322753906e+00,2.981091918945312500e+02
8.680000305175781250e+00,2.984687500000000000e+02
8.720000267028808594e+00,2.988259887695312500e+02
8.760000228881835938e+00,2.991813354492187500e+02
8.800000190734863281e+00,2.994983215332031250e+02
8.840000152587890625e+00,2.997767944335937500e+02
8.880000114440917969e+00,3.000534057617187500e+02
8.920000076293945312e+00,3.003282470703125000e+02
8.960000038146972656e+00,3.005571594238281250e+02
9.000000000000000000e+00,3.007076416015625000e+02
9.039999961853027344e+00,3.008034667968750000e+02
9.079999923706054688e+00,3.008968505859375000e+02
9.119999885559082031e+00,3.009997863769531250e+02
9.159999847412109375e+00,3.011592102050781250e+02
9.199999809265136719e+00,3.012510070800781250e+02
9.239999771118164062e+00,3.012750854492187500e+02
9.279999732971191406e+00,3.012963562011718750e+02
9.319999694824218750e+00,3.013153686523437500e+02
9.359999656677246094e+00,3.013316040039062500e+02
9.399999618530273438e+00,3.012676696777343750e+02
9.439999580383300781e+00,3.011239013671875000e+02
9.479999542236328125e+00,3.009773559570312500e+02
9.519999504089355469e+00,3.008281555175781250e+02
9.560000419616699219e+00,3.006765747070312500e+02
9.600000381469726562e+00,3.003694458007812500e+02
9.640000343322753906e+00,2.999342346191406250e+02
9.680000305175781250e+00,2.995787658691406250e+02
9.720000267028808594e+00,2.992206726074218750e+02
9.760000228881835938e+00,2.988596801757812500e+02
9.800000190734863281e+00,2.980996093750000000e+02
9.840000152587890625e+00,2.969312438964843750e+02
9.880000114440917969e+00,2.957321166992187500e+02
9.920000076293945312e+00,2.945315246582031250e+02
9.960000038146972656e+00,2.938143920898437500e+02
1.000000000000000000e+01,2.903550109863281250e+02
1.003999996185302734e+01,2.837940368652343750e+02
1.007999992370605469e+01,2.772099914550781250e+02
1.011999988555908203e+01,2.706036376953125000e+02
1.015999984741210938e+01,2.639757690429687500e+02
1.019999980926513672e+01,2.566497802734375000e+02
1.023999977111816406e+01,2.568051147460937500e+02
1.027999973297119141e+01,2.569517822265625000e+02
1.032000064849853516e+01,2.570899963378906250e+02
1.036000061035156250e+01,2.572200927734375000e+02
1.040000057220458984e+01,2.582850341796875000e+02
1.044000053405761719e+01,2.599168395996093750e+02
1.048000049591064453e+01,2.604078979492187500e+02
1.052000045776367188e+01,2.608941345214843750e+02
1.056000041961669922e+01,2.613753051757812500e+02
1.060000038146972656e+01,2.612817382812500000e+02
1.064000034332275391e+01,2.606162109375000000e+02
1.068000030517578125e+01,2.599497375488281250e+02
1.072000026702880859e+01,2.592822570800781250e+02
1.076000022888183594e+01,2.586137695312500000e+02
1.080000019073486328e+01,2.578342895507812500e+02
1.084000015258789062e+01,2.569262084960937500e+02
1.088000011444091797e+01,2.560097656250000000e+02
1.092000007629394531e+01,2.550936279296875000e+02
1.096000003814697266e+01,2.541776580810546875e+02
1.100000000000000000e+01,2.531588592529296875e+02
1.103999996185302734e+01,2.520375518798828125e+02
1.107999992370605469e+01,2.509175567626953125e+02
1.111999988555908203e+01,2.507668609619140625e+02
1.115999984741210938e+01,2.506139373779296875e+02
1.119999980926513672e+01,2.499704589843750000e+02
1.123999977111816406e+01,2.488340148925781250e+02
1.127999973297119141e+01,2.476927337646484375e+02
1.131999969482421875e+01,2.465459899902343750e+02
1.136000061035156250e+01,2.453948364257812500e+02
1.140000057220458984e+01,2.430139465332031250e+02
1.144000053405761719e+01,2.393976440429687500e+02
1.148000049591064453e+01,2.357682800292968750e+02
1.152000045776367188e+01,2.319049377441406250e+02
1.156000041961669922e+01,2.214930419921875000e+02
1.160000038146972656e+01,2.185692749023437500e+02
1.164000034332275391e+01,2.177073364257812500e+02
1.168000030517578125e+01,2.168392944335937500e+02
1.172000026702880859e+01,2.159619293212890625e+02
1.176000022888183594e+01,2.150758972167968750e+02
1.180000019073486328e+01,2.141413879394531250e+02
1.184000015258789062e+01,2.131627044677734375e+02
1.188000011444091797e+01,2.121831359863281250e+02
1.192000007629394531e+01,2.111950683593750000e+02
1.196000003814697266e+01,2.101996917724609375e+02
1.200000000000000000e+01,2.090541534423828125e+02
1.203999996185302734e+01,2.077595214843750000e+02
1.207999992370605469e+01,2.068323211669921875e+02
1.211999988555908203e+01,2.069783477783203125e+02
1.215999984741210938e+01,2.071234588623046875e+02
1.219999980926513672e+01,2.072091979980468750e+02
1.223999977111816406e+01,2.072351226806640625e+02
1.227999973297119141e+01,2.072600097656250000e+02
1.231999969482421875e+01,2.072844848632812500e+02
1.236000061035156250e+01,2.073078918457031250e+02
1.240000057220458984e+01,2.072257995605468750e+02
1.244000053405761719e+01,2.070387573242187500e+02
1.248000049591064453e+01,2.068505249023437500e+02
1.252000045776367188e+01,2.066613159179687500e+02
1.256000041961669922e+01,2.064714355468750000e+02
1.260000038146972656e+01,2.062157592773437500e+02
1.264000034332275391e+01,2.058941040039062500e+02
1.268000030517578125e+01,2.055721588134765625e+02
1.272000026702880859e+01,2.052489776611328125e+02
1.276000022888183594e+01,2.049252166748046875e+02
1.280000019073486328e+01,2.045568237304687500e+02
1.284000015258789062e+01,2.041436614990234375e+02
1.288000011444091797e+01,2.037307891845703125e+02
1.292000007629394531e+01,2.033181457519531250e+02
1.296000003814697266e+01,2.029049377441406250e+02
1.300000000000000000e+01,2.022808837890625000e+02
1.303999996185302734e+01,2.014467163085937500e+02
1.307999992370605469e+01,2.006132659912109375e+02
1.311999988555908203e+01,1.997724304199218750e+02
1.315999984741210938e+01,1.989298095703125000e+02
1.319999980926513672e+01,1.979660186767578125e+02
1.323999977111816406e+01,1.968827056884765625e+02
1.327999973297119141e+01,1.955887145996093750e+02
1.331999969482421875e+01,1.924408264160156250e+02
1.335999965667724609e+01,1.912141418457031250e+02
1.340000057220458984e+01,1.903460845947265625e+02
1.344000053405761719e+01,1.897677154541015625e+02
1.348000049591064453e+01,1.891889648437500000e+02
1.352000045776367188e+01,1.886098022460937500e+02
1.356000041961669922e+01,1.880307006835937500e+02
1.360000038146972656e+01,1.873918609619140625e+02
1.364000034332275391e+01,1.866936340332031250e+02
1.368000030517578125e+01,1.859950714111328125e+02
1.372000026702880859e+01,1.852969360351562500e+02
1.376000022888183594e+01,1.845987548828125000e+02
1.380000019073486328e+01,1.838424835205078125e+02
1.384000015258789062e+01,1.823666076660156250e+02
1.388000011444091797e+01,1.815625915527343750e+02
1.392000007629394531e+01,1.810964965820312500e+02
1.396000003814697266e+01,1.806317596435546875e+02
1.400000000000000000e+01,1.802103881835937500e+02
1.403999996185302734e+01,1.798327484130859375e+02
1.407999992370605469e+01,1.794548645019531250e+02
1.411999988555908203e+01,1.790763397216796875e+02
1.415999984741210938e+01,1.786974029541015625e+02
1.419999980926513672e+01,1.783161315917968750e+02
1.423999977111816406e+01,1.779321746826171875e+02
1.427999973297119141e+01,1.775478210449218750e+02
1.431999969482421875e+01,1.771636047363281250e+02
1.435999965667724609e+01,1.767791748046875000e+02
1.439999961853027344e+01,1.763749389648437500e+02
1.444000053405761719e+01,1.759453582763671875e+02
1.448000049591064453e+01,1.755159606933593750e+02
1.452000045776367188e+01,1.750867919921875000e+02
1.456000041961669922e+01,1.746575012207031250e+02
1.460000038146972656e+01,1.742233276367187500e+02
1.464000034332275391e+01,1.737844085693359375e+02
1.468000030517578125e+01,1.733455505371093750e+02
1.472000026702880859e+01,1.729068603515625000e+02
1.476000022888183594e+01,1.724681701660156250e+02
1.480000019073486328e+01,1.720272216796875000e+02
1.484000015258789062e+01,1.715839080810546875e+02
1.488000011444091797e+01,1.711403198242187500e+02
1.492000007629394531e+01,1.706966247558593750e+02
1.496000003814697266e+01,1.702529754638671875e+02
1.500000000000000000e+01,1.698085784912109375e+02
1.503999996185302734e+01,1.693633422851562500e+02
1.507999992370605469e+01,1.689180603027343750e+02
1.511999988555908203e+01,1.684727478027343750e+02
1.515999984741210938e+01,1.680275878906250000e+02
1.519999980926513672e+01,1.675786285400390625e+02
1.523999977111816406e+01,1.671258392333984375e+02
1.527999973297119141e+01,1.666730041503906250e+02
1.531999969482421875e+01,1.662204284667968750e+02
1.535999965667724609e+01,1.657676086425781250e+02
1.539999961853027344e+01,1.653160247802734375e+02
1.544000053405761719e+01,1.648654174804687500e+02
1.548000049591064453e+01,1.644147491455078125e+02
1.552000045776367188e+01,1.639643096923828125e+02
1.556000041961669922e+01,1.635137786865234375e+02
1.560000038146972656e+01,1.630730133056640625e+02
1.564000034332275391e+01,1.626417694091796875e+02
1.568000030517578125e+01,1.622102355957031250e+02
1.572000026702880859e+01,1.618380584716796875e+02
1.576000022888183594e+01,1.614661712646484375e+02
1.580000019073486328e+01,1.610861206054687500e+02
1.584000015258789062e+01,1.606976928710937500e+02
1.588000011444091797e+01,1.603056335449218750e+02
1.592000007629394531e+01,1.599130859375000000e+02
1.596000003814697266e+01,1.595204010009765625e+02
1.600000000000000000e+01,1.591291809082031250e+02
1.603999900817871094e+01,1.587396697998046875e+02
1.607999992370605469e+01,1.583497009277343750e+02
1.611999893188476562e+01,1.579594573974609375e+02
1.615999984741210938e+01,1.575687255859375000e+02
1.619999885559082031e+01,1.571777496337890625e+02
1.623999977111816406e+01,1.567862854003906250e+02
1.627999877929687500e+01,1.563945922851562500e+02
1.631999969482421875e+01,1.560024566650390625e+02
1.635999870300292969e+01,1.556100616455078125e+02
1.639999961853027344e+01,1.552172393798828125e+02
1.643999862670898438e+01,1.548241577148437500e+02
1.647999954223632812e+01,1.544307403564453125e+02
1.652000045776367188e+01,1.540449676513671875e+02
1.655999946594238281e+01,1.536589965820312500e+02
1.660000038146972656e+01,1.532725219726562500e+02
1.663999938964843750e+01,1.528858337402343750e+02
1.668000030517578125e+01,1.524988708496093750e+02
1.671999931335449219e+01,1.521116638183593750e+02
1.676000022888183594e+01,1.517239990234375000e+02
1.679999923706054688e+01,1.513359832763671875e+02
1.684000015258789062e+01,1.509478149414062500e+02
1.687999916076660156e+01,1.505591125488281250e+02
1.692000007629394531e+01,1.501702270507812500e+02
1.695999908447265625e+01,1.497809753417968750e+02
1.700000000000000000e+01,1.494028015136718750e+02
1.703999900817871094e+01,1.490356750488281250e+02
1.707999992370605469e+01,1.486682434082031250e+02
1.711999893188476562e+01,1.483009338378906250e+02
1.715999984741210938e+01,1.479333038330078125e+02
1.719999885559082031e+01,1.475655822753906250e+02
1.723999977111816406e+01,1.471977233886718750e+02
1.727999877929687500e+01,1.468035888671875000e+02
1.731999969482421875e+01,1.464010009765625000e+02
1.735999870300292969e+01,1.459984741210937500e+02
1.739999961853027344e+01,1.455959777832031250e+02
1.743999862670898438e+01,1.451927795410156250e+02
1.747999954223632812e+01,1.447879943847656250e+02
