# Start of Energy Bin (keV), Effective Area (cm^2)
1.600000023841857910e+00,1.028439760208129883e+00
1.639999985694885254e+00,1.405165195465087891e+00
1.680000066757202148e+00,1.915184259414672852e+00
1.720000028610229492e+00,2.604251623153686523e+00
1.759999990463256836e+00,3.481770277023315430e+00
1.799999952316284180e+00,4.338162422180175781e+00
1.840000033378601074e+00,2.380340576171875000e+00
1.879999995231628418e+00,3.005112648010253906e+00
1.920000076293945312e+00,3.881473064422607422e+00
1.960000038146972656e+00,4.848533630371093750e+00
2.000000000000000000e+00,5.948366165161132812e+00
2.039999961853027344e+00,7.235411643981933594e+00
2.079999923706054688e+00,8.793132781982421875e+00
2.119999885559082031e+00,7.850661277770996094e+00
2.160000085830688477e+00,9.064098358154296875e+00
2.200000047683715820e+00,9.359677314758300781e+00
2.240000009536743164e+00,1.065812492370605469e+01
2.279999971389770508e+00,1.217444133758544922e+01
2.319999933242797852e+00,1.403788375854492188e+01
2.360000133514404297e+00,1.583065414428710938e+01
2.400000095367431641e+00,1.753498268127441406e+01
2.440000057220458984e+00,1.946570014953613281e+01
2.480000019073486328e+00,2.172681236267089844e+01
2.519999980926513672e+00,2.446107101440429688e+01
2.559999942779541016e+00,2.745969200134277344e+01
2.599999904632568359e+00,3.015899658203125000e+01
2.639999866485595703e+00,3.056422805786132812e+01
2.679999828338623047e+00,3.324780273437500000e+01
2.720000028610229492e+00,3.613629913330078125e+01
2.759999990463256836e+00,3.925875091552734375e+01
2.799999952316284180e+00,4.261817169189453125e+01
2.840000152587890625e+00,4.608254241943359375e+01
2.880000114440917969e+00,4.904939270019531250e+01
2.920000076293945312e+00,5.215167999267578125e+01
2.960000038146972656e+00,5.543748855590820312e+01
3.000000000000000000e+00,5.901440429687500000e+01
3.039999961853027344e+00,6.102783203125000000e+01
3.079999923706054688e+00,6.468709564208984375e+01
3.119999885559082031e+00,6.848362731933593750e+01
3.159999847412109375e+00,7.163777160644531250e+01
3.199999809265136719e+00,7.489828491210937500e+01
3.240000009536743164e+00,7.826999664306640625e+01
3.279999971389770508e+00,8.062075042724609375e+01
3.319999933242797852e+00,8.491511535644531250e+01
3.360000133514404297e+00,8.940956115722656250e+01
3.400000095367431641e+00,9.409629058837890625e+01
3.440000057220458984e+00,9.772203063964843750e+01
3.480000019073486328e+00,1.003445587158203125e+02
3.519999980926513672e+00,1.004432525634765625e+02
3.559999942779541016e+00,1.030999526977539062e+02
3.599999904632568359e+00,1.058119049072265625e+02
3.639999866485595703e+00,1.085527038574218750e+02
3.679999828338623047e+00,1.113309173583984375e+02
3.719999790191650391e+00,1.127835235595703125e+02
3.759999752044677734e+00,1.156454162597656250e+02
3.800000190734863281e+00,1.181328125000000000e+02
3.840000152587890625e+00,1.203406143188476562e+02
3.880000114440917969e+00,1.225549468994140625e+02
3.920000076293945312e+00,1.253897857666015625e+02
3.960000038146972656e+00,1.284652404785156250e+02
4.000000000000000000e+00,1.307962036132812500e+02
4.039999961853027344e+00,1.338079833984375000e+02
4.079999923706054688e+00,1.368591003417968750e+02
4.119999885559082031e+00,1.399499206542968750e+02
4.159999847412109375e+00,1.430414123535156250e+02
4.199999809265136719e+00,1.456639556884765625e+02
4.239999771118164062e+00,1.483021545410156250e+02
4.279999732971191406e+00,1.509621429443359375e+02
4.320000171661376953e+00,1.511150054931640625e+02
4.360000133514404297e+00,1.526717071533203125e+02
4.400000095367431641e+00,1.549229583740234375e+02
4.440000057220458984e+00,1.571838684082031250e+02
4.480000019073486328e+00,1.594611816406250000e+02
4.519999980926513672e+00,1.617508087158203125e+02
4.559999942779541016e+00,1.640454101562500000e+02
4.599999904632568359e+00,1.642508850097656250e+02
4.639999866485595703e+00,1.661621398925781250e+02
4.679999828338623047e+00,1.679850311279296875e+02
4.719999790191650391e+00,1.698097381591796875e+02
4.759999752044677734e+00,1.716363677978515625e+02
4.799999713897705078e+00,1.734600372314453125e+02
4.840000152587890625e+00,1.752769165039062500e+02
4.880000114440917969e+00,1.770919952392578125e+02
4.920000076293945312e+00,1.780297698974609375e+02
4.960000038146972656e+00,1.798467254638671875e+02
5.000000000000000000e+00,1.816183776855468750e+02
5.039999961853027344e+00,1.834956665039062500e+02
5.079999923706054688e+00,1.852359008789062500e+02
5.119999885559082031e+00,1.869742889404296875e+02
5.159999847412109375e+00,1.887103118896484375e+02
5.199999809265136719e+00,1.904409179687500000e+02
5.239999771118164062e+00,1.921675720214843750e+02
5.279999732971191406e+00,1.938945922851562500e+02
5.320000171661376953e+00,1.956224212646484375e+02
5.360000133514404297e+00,1.973510894775390625e+02
5.400000095367431641e+00,1.990770568847656250e+02
5.440000057220458984e+00,2.007989501953125000e+02
5.480000019073486328e+00,2.025213775634765625e+02
5.519999980926513672e+00,2.042435302734375000e+02
5.559999942779541016e+00,2.058247680664062500e+02
5.599999904632568359e+00,2.072580871582031250e+02
5.639999866485595703e+00,2.086877136230468750e+02
5.679999828338623047e+00,2.101149902343750000e+02
5.719999790191650391e+00,2.115444183349609375e+02
5.759999752044677734e+00,2.129712829589843750e+02
5.799999713897705078e+00,2.143779754638671875e+02
5.839999675750732422e+00,2.157655639648437500e+02
5.879999637603759766e+00,2.171511230468750000e+02
5.919999599456787109e+00,2.185329589843750000e+02
5.960000038146972656e+00,2.199125366210937500e+02
6.000000000000000000e+00,2.211703796386718750e+02
6.039999961853027344e+00,2.223039093017578125e+02
6.079999923706054688e+00,2.234331970214843750e+02
6.119999885559082031e+00,2.244480438232421875e+02
6.159999847412109375e+00,2.253859710693359375e+02
6.199999809265136719e+00,2.263276367187500000e+02
6.239999771118164062e+00,2.272727050781250000e+02
6.279999732971191406e+00,2.282132263183593750e+02
6.319999694824218750e+00,2.291542816162109375e+02
6.359999656677246094e+00,2.300906829833984375e+02
6.399999618530273438e+00,2.310174865722656250e+02
6.439999580383300781e+00,2.319348602294921875e+02
6.480000019073486328e+00,2.328476562500000000e+02
6.519999980926513672e+00,2.337546691894531250e+02
6.559999942779541016e+00,2.346574707031250000e+02
6.599999904632568359e+00,2.355514526367187500e+02
6.639999866485595703e+00,2.364364929199218750e+02
6.679999828338623047e+00,2.373179626464843750e+02
6.719999790191650391e+00,2.381462707519531250e+02
6.759999752044677734e+00,2.388688354492187500e+02
6.799999713897705078e+00,2.395769348144531250e+02
6.839999675750732422e+00,2.402709350585937500e+02
6.879999637603759766e+00,2.409610290527343750e+02
6.919999599456787109e+00,2.416470336914062500e+02
6.959999561309814453e+00,2.423291168212890625e+02
7.000000000000000000e+00,2.429661407470703125e+02
7.039999961853027344e+00,2.435576477050781250e+02
7.079999923706054688e+00,2.441464538574218750e+02
7.119999885559082031e+00,2.434370574951171875e+02
7.159999847412109375e+00,2.440080108642578125e+02
7.199999809265136719e+00,2.445852966308593750e+02
7.239999771118164062e+00,2.451690368652343750e+02
7.279999732971191406e+00,2.457493591308593750e+02
7.319999694824218750e+00,2.463254699707031250e+02
7.359999656677246094e+00,2.468979187011718750e+02
7.399999618530273438e+00,2.474565124511718750e+02
7.439999580383300781e+00,2.480007934570312500e+02
7.479999542236328125e+00,2.485424194335937500e+02
7.519999980926513672e+00,2.490809478759765625e+02
7.559999942779541016e+00,2.496163940429687500e+02
7.599999904632568359e+00,2.501385498046875000e+02
7.639999866485595703e+00,2.506473388671875000e+02
7.679999828338623047e+00,2.511529846191406250e+02
7.719999790191650391e+00,2.516564636230468750e+02
7.759999752044677734e+00,2.521575012207031250e+02
7.799999713897705078e+00,2.526441650390625000e+02
7.839999675750732422e+00,2.531163330078125000e+02
7.879999637603759766e+00,2.535859985351562500e+02
7.919999599456787109e+00,2.540524291992187500e+02
7.959999561309814453e+00,2.545161132812500000e+02
7.999999523162841797e+00,2.549291687011718750e+02
8.039999961853027344e+00,2.552910766601562500e+02
8.079999923706054688e+00,2.556503906250000000e+02
8.119999885559082031e+00,2.560074462890625000e+02
8.159999847412109375e+00,2.562924194335937500e+02
8.199999809265136719e+00,2.565486755371093750e+02
8.239999771118164062e+00,2.568059692382812500e+02
8.279999732971191406e+00,2.571506652832031250e+02
8.319999694824218750e+00,2.574934082031250000e+02
8.359999656677246094e+00,2.578338623046875000e+02
8.399999618530273438e+00,2.581329650878906250e+02
8.439999580383300781e+00,2.583908081054687500e+02
8.479999542236328125e+00,2.586458740234375000e+02
8.520000457763671875e+00,2.588984069824218750e+02
8.560000419616699219e+00,2.591484680175781250e+02
8.600000381469726562e+00,2.593469238281250000e+02
8.640000343322753906e+00,2.594934692382812500e+02
8.680000305175781250e+00,2.596372680664062500e+02
8.720000267028808594e+00,2.597783508300781250e+02
8.760000228881835938e+00,2.599171447753906250e+02
8.800000190734863281e+00,2.600024719238281250e+02
8.840000152587890625e+00,2.600340881347656250e+02
8.880000114440917969e+00,2.600633544921875000e+02
8.920000076293945312e+00,2.600938720703125000e+02
8.960000038146972656e+00,2.600839843750000000e+02
9.000000000000000000e+00,2.600016174316406250e+02
9.039999961853027344e+00,2.598673706054687500e+02
9.079999923706054688e+00,2.597303161621093750e+02
9.119999885559082031e+00,2.596097106933593750e+02
9.159999847412109375e+00,2.595925598144531250e+02
9.199999809265136719e+00,2.595253601074218750e+02
9.239999771118164062e+00,2.594081420898437500e+02
9.279999732971191406e+00,2.592875976562500000e+02
9.319999694824218750e+00,2.591643371582031250e+02
9.359999656677246094e+00,2.590377502441406250e+02
9.399999618530273438e+00,2.588542175292968750e+02
9.439999580383300781e+00,2.586138610839843750e+02
9.479999542236328125e+00,2.583703308105468750e+02
9.519999504089355469e+00,2.581227722167968750e+02
9.560000419616699219e+00,2.578722839355468750e+02
9.600000381469726562e+00,2.574926147460937500e+02
9.640000343322753906e+00,2.570074462890625000e+02
9.680000305175781250e+00,2.565898132324218750e+02
9.720000267028808594e+00,2.561726379394531250e+02
9.760000228881835938e+00,2.557521667480468750e+02
9.800000190734863281e+00,2.549420776367187500e+02
9.840000152587890625e+00,2.537346191406250000e+02
9.880000114440917969e+00,2.525003051757812500e+02
9.920000076293945312e+00,2.512612609863281250e+02
9.960000038146972656e+00,2.503327941894531250e+02
1.000000000000000000e+01,2.468939819335937500e+02
1.003999996185302734e+01,2.407297668457031250e+02
1.007999992370605469e+01,2.345711059570312500e+02
1.011999988555908203e+01,2.284182739257812500e+02
1.015999984741210938e+01,2.222727966308593750e+02
1.019999980926513672e+01,2.155540466308593750e+02
1.023999977111816406e+01,2.156704406738281250e+02
1.027999973297119141e+01,2.157798614501953125e+02
1.032000064849853516e+01,2.158835449218750000e+02
1.036000061035156250e+01,2.159806823730468750e+02
1.040000057220458984e+01,2.168920593261718750e+02
1.044000053405761719e+01,2.183077392578125000e+02
1.048000049591064453e+01,2.187615814208984375e+02
1.052000045776367188e+01,2.192169189453125000e+02
1.056000041961669922e+01,2.196677093505859375e+02
1.060000038146972656e+01,2.195718231201171875e+02
1.064000034332275391e+01,2.189319305419921875e+02
1.068000030517578125e+01,2.182912597656250000e+02
1.072000026702880859e+01,2.176432495117187500e+02
1.076000022888183594e+01,2.169944305419921875e+02
1.080000019073486328e+01,2.162410888671875000e+02
1.084000015258789062e+01,2.153685607910156250e+02
1.088000011444091797e+01,2.144894561767578125e+02
1.092000007629394531e+01,2.136132507324218750e+02
1.096000003814697266e+01,2.127375793457031250e+02
1.100000000000000000e+01,2.117639465332031250e+02
1.103999996185302734e+01,2.106930084228515625e+02
1.107999992370605469e+01,2.096239471435546875e+02
1.111999988555908203e+01,2.093933868408203125e+02
1.115999984741210938e+01,2.091611938476562500e+02
1.119999980926513672e+01,2.084648590087890625e+02
1.123999977111816406e+01,2.073037719726562500e+02
1.127999973297119141e+01,2.061407012939453125e+02
1.131999969482421875e+01,2.049747619628906250e+02
1.136000061035156250e+01,2.038072509765625000e+02
1.140000057220458984e+01,2.016318359375000000e+02
1.144000053405761719e+01,1.984465332031250000e+02
1.148000049591064453e+01,1.952561340332031250e+02
1.152000045776367188e+01,1.918930053710937500e+02
1.156000041961669922e+01,1.832060852050781250e+02
1.160000038146972656e+01,1.807378082275390625e+02
1.164000034332275391e+01,1.799915618896484375e+02
1.168000030517578125e+01,1.792406463623046875e+02
1.172000026702880859e+01,1.784823760986328125e+02
1.176000022888183594e+01,1.777172698974609375e+02
1.180000019073486328e+01,1.768725585937500000e+02
1.184000015258789062e+01,1.759522399902343750e+02
1.188000011444091797e+01,1.750322265625000000e+02
1.192000007629394531e+01,1.741225585937500000e+02
1.196000003814697266e+01,1.732077026367187500e+02
1.200000000000000000e+01,1.721633148193359375e+02
1.203999996185302734e+01,1.709904937744140625e+02
1.207999992370605469e+01,1.701598510742187500e+02
1.211999988555908203e+01,1.702951965332031250e+02
1.215999984741210938e+01,1.704295349121093750e+02
1.219999980926513672e+01,1.704976654052734375e+02
1.223999977111816406e+01,1.704991760253906250e+02
1.227999973297119141e+01,1.704998016357421875e+02
1.231999969482421875e+01,1.705275268554687500e+02
1.236000061035156250e+01,1.705543823242187500e+02
1.240000057220458984e+01,1.704785461425781250e+02
1.244000053405761719e+01,1.703005065917968750e+02
1.248000049591064453e+01,1.701215209960937500e+02
1.252000045776367188e+01,1.699297790527343750e+02
1.256000041961669922e+01,1.697375183105468750e+02
1.260000038146972656e+01,1.694850158691406250e+02
1.264000034332275391e+01,1.691721649169921875e+02
1.268000030517578125e+01,1.688592224121093750e+02
1.272000026702880859e+01,1.685286254882812500e+02
1.276000022888183594e+01,1.681977844238281250e+02
1.280000019073486328e+01,1.678270111083984375e+02
1.284000015258789062e+01,1.674162597656250000e+02
1.288000011444091797e+01,1.670060424804687500e+02
1.292000007629394531e+01,1.666266174316406250e+02
1.296000003814697266e+01,1.662469024658203125e+02
1.300000000000000000e+01,1.656949157714843750e+02
1.303999996185302734e+01,1.649713439941406250e+02
1.307999992370605469e+01,1.642486572265625000e+02
1.311999988555908203e+01,1.634901123046875000e+02
1.315999984741210938e+01,1.627306213378906250e+02
1.319999980926513672e+01,1.618722381591796875e+02
1.323999977111816406e+01,1.609163360595703125e+02
1.327999973297119141e+01,1.598840637207031250e+02
1.331999969482421875e+01,1.573716888427734375e+02
1.335999965667724609e+01,1.564480285644531250e+02
1.340000057220458984e+01,1.557988739013671875e+02
1.344000053405761719e+01,1.553620605468750000e+02
1.348000049591064453e+01,1.549247283935546875e+02
1.352000045776367188e+01,1.544725494384765625e+02
1.356000041961669922e+01,1.540202941894531250e+02
1.360000038146972656e+01,1.535149230957031250e+02
1.364000034332275391e+01,1.529567260742187500e+02
1.368000030517578125e+01,1.523981323242187500e+02
1.372000026702880859e+01,1.518398132324218750e+02
1.376000022888183594e+01,1.512814025878906250e+02
1.380000019073486328e+01,1.506804351806640625e+02
1.384000015258789062e+01,1.494946289062500000e+02
1.388000011444091797e+01,1.488640289306640625e+02
1.392000007629394531e+01,1.485130615234375000e+02
1.396000003814697266e+01,1.481630401611328125e+02
1.400000000000000000e+01,1.478448181152343750e+02
1.403999996185302734e+01,1.475586853027343750e+02
1.407999992370605469e+01,1.472722320556640625e+02
1.411999988555908203e+01,1.469852142333984375e+02
1.415999984741210938e+01,1.466977691650390625e+02
1.419999980926513672e+01,1.464072723388671875e+02
1.423999977111816406e+01,1.461134490966796875e+02
1.427999973297119141e+01,1.458191833496093750e+02
1.431999969482421875e+01,1.455250091552734375e+02
1.435999965667724609e+01,1.452305908203125000e+02
1.439999961853027344e+01,1.449203491210937500e+02
1.444000053405761719e+01,1.445897827148437500e+02
1.448000049591064453e+01,1.442592468261718750e+02
1.452000045776367188e+01,1.439286804199218750e+02
1.456000041961669922e+01,1.435979156494140625e+02
1.460000038146972656e+01,1.432638549804687500e+02
1.464000034332275391e+01,1.429266662597656250e+02
1.468000030517578125e+01,1.425894165039062500e+02
1.472000026702880859e+01,1.422527465820312500e+02
1.476000022888183594e+01,1.419159851074218750e+02
1.480000019073486328e+01,1.415770874023437500e+02
1.484000015258789062e+01,1.412359619140625000e+02
1.488000011444091797e+01,1.408944854736328125e+02
1.492000007629394531e+01,1.405518188476562500e+02
1.496000003814697266e+01,1.402090759277343750e+02
1.500000000000000000e+01,1.398662414550781250e+02
1.503999996185302734e+01,1.395232238769531250e+02
1.507999992370605469e+01,1.391800689697265625e+02
1.511999988555908203e+01,1.388375244140625000e+02
1.515999984741210938e+01,1.384950408935546875e+02
1.519999980926513672e+01,1.381484832763671875e+02
1.523999977111816406e+01,1.377978668212890625e+02
1.527999973297119141e+01,1.374471435546875000e+02
1.531999969482421875e+01,1.370965270996093750e+02
1.535999965667724609e+01,1.367456665039062500e+02
1.539999961853027344e+01,1.363956298828125000e+02
1.544000053405761719e+01,1.360462646484375000e+02
1.548000049591064453e+01,1.356967773437500000e+02
1.552000045776367188e+01,1.353474426269531250e+02
1.556000041961669922e+01,1.349979705810546875e+02
1.560000038146972656e+01,1.346567535400390625e+02
1.564000034332275391e+01,1.343236083984375000e+02
1.568000030517578125e+01,1.339900970458984375e+02
1.572000026702880859e+01,1.336855773925781250e+02
1.576000022888183594e+01,1.333810119628906250e+02
1.580000019073486328e+01,1.330693054199218750e+02
1.584000015258789062e+01,1.327502899169921875e+02
1.588000011444091797e+01,1.324282531738281250e+02
1.592000007629394531e+01,1.321064758300781250e+02
1.596000003814697266e+01,1.317845764160156250e+02
1.600000000000000000e+01,1.314627990722656250e+02
1.603999900817871094e+01,1.311413574218750000e+02
1.607999992370605469e+01,1.308195648193359375e+02
1.611999893188476562e+01,1.304970550537109375e+02
1.615999984741210938e+01,1.301741333007812500e+02
1.619999885559082031e+01,1.298510131835937500e+02
1.623999977111816406e+01,1.295274963378906250e+02
1.627999877929687500e+01,1.292037811279296875e+02
1.631999969482421875e+01,1.288812103271484375e+02
1.635999870300292969e+01,1.285584259033203125e+02
1.639999961853027344e+01,1.282352752685546875e+02
1.643999862670898438e+01,1.279118804931640625e+02
1.647999954223632812e+01,1.275882110595703125e+02
1.652000045776367188e+01,1.272661209106445312e+02
1.655999946594238281e+01,1.269438476562500000e+02
1.660000038146972656e+01,1.266212005615234375e+02
1.663999938964843750e+01,1.262983856201171875e+02
1.668000030517578125e+01,1.259753417968750000e+02
1.671999931335449219e+01,1.256526718139648438e+02
1.676000022888183594e+01,1.253296356201171875e+02
1.679999923706054688e+01,1.250063171386718750e+02
1.684000015258789062e+01,1.246829071044921875e+02
1.687999916076660156e+01,1.243590393066406250e+02
1.692000007629394531e+01,1.240363159179687500e+02
1.695999908447265625e+01,1.237132797241210938e+02
1.700000000000000000e+01,1.233917999267578125e+02
1.703999900817871094e+01,1.230718994140625000e+02
1.707999992370605469e+01,1.227518157958984375e+02
1.711999893188476562e+01,1.224301910400390625e+02
1.715999984741210938e+01,1.221083602905273438e+02
1.719999885559082031e+01,1.217865600585937500e+02
1.723999977111816406e+01,1.214647064208984375e+02
1.727999877929687500e+01,1.211058807373046875e+02
1.731999969482421875e+01,1.207360382080078125e+02
1.735999870300292969e+01,1.203664550781250000e+02
1.739999961853027344e+01,1.199970550537109375e+02
1.743999862670898438e+01,1.196273269653320312e+02
1.747999954223632812e+01,1.192564392089843750e+02
