# Start of Energy Bin (keV), Effective Area (cm^2)
1.600000023841857910e+00,8.101966381072998047e-01
1.639999985694885254e+00,1.104928016662597656e+00
1.680000066757202148e+00,1.503156423568725586e+00
1.720000028610229492e+00,2.040119886398315430e+00
1.759999990463256836e+00,2.722348928451538086e+00
1.799999952316284180e+00,3.382554054260253906e+00
1.840000033378601074e+00,1.849897861480712891e+00
1.879999995231628418e+00,2.333384513854980469e+00
1.920000076293945312e+00,3.017985820770263672e+00
1.960000038146972656e+00,3.775049209594726562e+00
2.000000000000000000e+00,4.639362335205078125e+00
2.039999961853027344e+00,5.654906272888183594e+00
2.079999923706054688e+00,6.886518955230712891e+00
2.119999885559082031e+00,6.155157566070556641e+00
2.160000085830688477e+00,7.110055446624755859e+00
2.200000047683715820e+00,7.344150543212890625e+00
2.240000009536743164e+00,8.363905906677246094e+00
2.279999971389770508e+00,9.554861068725585938e+00
2.319999933242797852e+00,1.102120780944824219e+01
2.360000133514404297e+00,1.243307018280029297e+01
2.400000095367431641e+00,1.377598667144775391e+01
2.440000057220458984e+00,1.529718208312988281e+01
2.480000019073486328e+00,1.707895469665527344e+01
2.519999980926513672e+00,1.923382568359375000e+01
2.559999942779541016e+00,2.159654808044433594e+01
2.599999904632568359e+00,2.372276878356933594e+01
2.639999866485595703e+00,2.404462432861328125e+01
2.679999828338623047e+00,2.615560150146484375e+01
2.720000028610229492e+00,2.842718887329101562e+01
2.759999990463256836e+00,3.088268852233886719e+01
2.799999952316284180e+00,3.352399063110351562e+01
2.840000152587890625e+00,3.624935913085937500e+01
2.880000114440917969e+00,3.858449172973632812e+01
2.920000076293945312e+00,4.102678680419921875e+01
2.960000038146972656e+00,4.361366653442382812e+01
3.000000000000000000e+00,4.635765075683593750e+01
3.039999961853027344e+00,4.779500198364257812e+01
3.079999923706054688e+00,5.050792312622070312e+01
3.119999885559082031e+00,5.331090545654296875e+01
3.159999847412109375e+00,5.559818649291992188e+01
3.199999809265136719e+00,5.795370864868164062e+01
3.240000009536743164e+00,6.038055419921875000e+01
3.279999971389770508e+00,6.200574874877929688e+01
3.319999933242797852e+00,6.582421112060546875e+01
3.360000133514404297e+00,6.984803771972656250e+01
3.400000095367431641e+00,7.406571197509765625e+01
3.440000057220458984e+00,7.700763702392578125e+01
3.480000019073486328e+00,7.899896240234375000e+01
3.519999980926513672e+00,7.900006866455078125e+01
3.559999942779541016e+00,8.101036834716796875e+01
3.599999904632568359e+00,8.305941009521484375e+01
3.639999866485595703e+00,8.512632751464843750e+01
3.679999828338623047e+00,8.721756744384765625e+01
3.719999790191650391e+00,8.826876068115234375e+01
3.759999752044677734e+00,9.041885375976562500e+01
3.800000190734863281e+00,9.227107238769531250e+01
3.840000152587890625e+00,9.390032196044921875e+01
3.880000114440917969e+00,9.553033447265625000e+01
3.920000076293945312e+00,9.775076293945312500e+01
3.960000038146972656e+00,1.001986618041992188e+02
4.000000000000000000e+00,1.020675659179687500e+02
4.039999961853027344e+00,1.044694061279296875e+02
4.079999923706054688e+00,1.069040298461914062e+02
4.119999885559082031e+00,1.093758850097656250e+02
4.159999847412109375e+00,1.118505401611328125e+02
4.199999809265136719e+00,1.139603729248046875e+02
4.239999771118164062e+00,1.160840988159179688e+02
4.279999732971191406e+00,1.182267532348632812e+02
4.320000171661376953e+00,1.184046325683593750e+02
4.360000133514404297e+00,1.196193771362304688e+02
4.400000095367431641e+00,1.213564453125000000e+02
4.440000057220458984e+00,1.231000595092773438e+02
4.480000019073486328e+00,1.248556976318359375e+02
4.519999980926513672e+00,1.266218719482421875e+02
4.559999942779541016e+00,1.283911285400390625e+02
4.599999904632568359e+00,1.285246429443359375e+02
4.639999866485595703e+00,1.299923248291015625e+02
4.679999828338623047e+00,1.313901672363281250e+02
4.719999790191650391e+00,1.327874450683593750e+02
4.759999752044677734e+00,1.341855468750000000e+02
4.799999713897705078e+00,1.355803985595703125e+02
4.840000152587890625e+00,1.369689941406250000e+02
4.880000114440917969e+00,1.383554840087890625e+02
4.920000076293945312e+00,1.390563507080078125e+02
4.960000038146972656e+00,1.404433898925781250e+02
5.000000000000000000e+00,1.417940673828125000e+02
5.039999961853027344e+00,1.432283020019531250e+02
5.079999923706054688e+00,1.445563049316406250e+02
5.119999885559082031e+00,1.458814086914062500e+02
5.159999847412109375e+00,1.472041778564453125e+02
5.199999809265136719e+00,1.485218505859375000e+02
5.239999771118164062e+00,1.498355712890625000e+02
5.279999732971191406e+00,1.511491088867187500e+02
5.320000171661376953e+00,1.524656982421875000e+02
5.360000133514404297e+00,1.537824707031250000e+02
5.400000095367431641e+00,1.550962829589843750e+02
5.440000057220458984e+00,1.564060668945312500e+02
5.480000019073486328e+00,1.577157592773437500e+02
5.519999980926513672e+00,1.590230407714843750e+02
5.559999942779541016e+00,1.602201080322265625e+02
5.599999904632568359e+00,1.613011322021484375e+02
5.639999866485595703e+00,1.623784179687500000e+02
5.679999828338623047e+00,1.634534301757812500e+02
5.719999790191650391e+00,1.645299835205078125e+02
5.759999752044677734e+00,1.656041107177734375e+02
5.799999713897705078e+00,1.666613006591796875e+02
5.839999675750732422e+00,1.677023162841796875e+02
5.879999637603759766e+00,1.687413635253906250e+02
5.919999599456787109e+00,1.697746887207031250e+02
5.960000038146972656e+00,1.708057708740234375e+02
6.000000000000000000e+00,1.717457275390625000e+02
6.039999961853027344e+00,1.725925750732421875e+02
6.079999923706054688e+00,1.734358215332031250e+02
6.119999885559082031e+00,1.741949005126953125e+02
6.159999847412109375e+00,1.748940887451171875e+02
6.199999809265136719e+00,1.755953521728515625e+02
6.239999771118164062e+00,1.762984008789062500e+02
6.279999732971191406e+00,1.769976959228515625e+02
6.319999694824218750e+00,1.776969146728515625e+02
6.359999656677246094e+00,1.783922576904296875e+02
6.399999618530273438e+00,1.790787200927734375e+02
6.439999580383300781e+00,1.797564239501953125e+02
6.480000019073486328e+00,1.804302978515625000e+02
6.519999980926513672e+00,1.811145477294921875e+02
6.559999942779541016e+00,1.817953796386718750e+02
6.599999904632568359e+00,1.824676666259765625e+02
6.639999866485595703e+00,1.831312561035156250e+02
6.679999828338623047e+00,1.837919006347656250e+02
6.719999790191650391e+00,1.843934173583984375e+02
6.759999752044677734e+00,1.849128417968750000e+02
6.799999713897705078e+00,1.854181518554687500e+02
6.839999675750732422e+00,1.859096221923828125e+02
6.879999637603759766e+00,1.863978424072265625e+02
6.919999599456787109e+00,1.868880615234375000e+02
6.959999561309814453e+00,1.873750000000000000e+02
7.000000000000000000e+00,1.878143920898437500e+02
7.039999961853027344e+00,1.882058258056640625e+02
7.079999923706054688e+00,1.885949249267578125e+02
7.119999885559082031e+00,1.879570312500000000e+02
7.159999847412109375e+00,1.883077850341796875e+02
7.199999809265136719e+00,1.886524810791015625e+02
7.239999771118164062e+00,1.889911193847656250e+02
7.279999732971191406e+00,1.893266601562500000e+02
7.319999694824218750e+00,1.896989288330078125e+02
7.359999656677246094e+00,1.900680389404296875e+02
7.399999618530273438e+00,1.904172515869140625e+02
7.439999580383300781e+00,1.907461547851562500e+02
7.479999542236328125e+00,1.910726318359375000e+02
7.519999980926513672e+00,1.913777465820312500e+02
7.559999942779541016e+00,1.916800537109375000e+02
7.599999904632568359e+00,1.919549560546875000e+02
7.639999866485595703e+00,1.922022857666015625e+02
7.679999828338623047e+00,1.924466705322265625e+02
7.719999790191650391e+00,1.926882629394531250e+02
7.759999752044677734e+00,1.929274597167968750e+02
7.799999713897705078e+00,1.931330261230468750e+02
7.839999675750732422e+00,1.933047180175781250e+02
7.879999637603759766e+00,1.934738616943359375e+02
7.919999599456787109e+00,1.936684875488281250e+02
7.959999561309814453e+00,1.938603973388671875e+02
7.999999523162841797e+00,1.940015106201171875e+02
8.039999961853027344e+00,1.940913543701171875e+02
8.079999923706054688e+00,1.941785888671875000e+02
8.119999885559082031e+00,1.942374877929687500e+02
8.159999847412109375e+00,1.942410583496093750e+02
8.199999809265136719e+00,1.942118835449218750e+02
8.239999771118164062e+00,1.941908569335937500e+02
8.279999732971191406e+00,1.942907409667968750e+02
8.319999694824218750e+00,1.944215087890625000e+02
8.359999656677246094e+00,1.945497894287109375e+02
8.399999618530273438e+00,1.946487426757812500e+02
8.439999580383300781e+00,1.947183380126953125e+02
8.479999542236328125e+00,1.947851104736328125e+02
8.520000457763671875e+00,1.948287353515625000e+02
8.560000419616699219e+00,1.948697662353515625e+02
8.600000381469726562e+00,1.948827056884765625e+02
8.640000343322753906e+00,1.948674316406250000e+02
8.680000305175781250e+00,1.948494110107421875e+02
8.720000267028808594e+00,1.948460388183593750e+02
8.760000228881835938e+00,1.948403015136718750e+02
8.800000190734863281e+00,1.948114013671875000e+02
8.840000152587890625e+00,1.947592163085937500e+02
8.880000114440917969e+00,1.947047119140625000e+02
8.920000076293945312e+00,1.946509094238281250e+02
8.960000038146972656e+00,1.945662689208984375e+02
9.000000000000000000e+00,1.944429931640625000e+02
9.039999961853027344e+00,1.942965545654296875e+02
9.079999923706054688e+00,1.941475982666015625e+02
9.119999885559082031e+00,1.940212402343750000e+02
9.159999847412109375e+00,1.940307464599609375e+02
9.199999809265136719e+00,1.940124511718750000e+02
9.239999771118164062e+00,1.939664306640625000e+02
9.279999732971191406e+00,1.939171905517578125e+02
9.319999694824218750e+00,1.938855133056640625e+02
9.359999656677246094e+00,1.938506469726562500e+02
9.399999618530273438e+00,1.937766723632812500e+02
9.439999580383300781e+00,1.936636962890625000e+02
9.479999542236328125e+00,1.935475006103515625e+02
9.519999504089355469e+00,1.934091644287109375e+02
9.560000419616699219e+00,1.932678375244140625e+02
9.600000381469726562e+00,1.930305480957031250e+02
9.640000343322753906e+00,1.927148895263671875e+02
9.680000305175781250e+00,1.924489593505859375e+02
9.720000267028808594e+00,1.921904602050781250e+02
9.760000228881835938e+00,1.919284973144531250e+02
9.800000190734863281e+00,1.913501586914062500e+02
9.840000152587890625e+00,1.904491424560546875e+02
9.880000114440917969e+00,1.895263366699218750e+02
9.920000076293945312e+00,1.886005706787109375e+02
9.960000038146972656e+00,1.878003692626953125e+02
1.000000000000000000e+01,1.849653778076171875e+02
1.003999996185302734e+01,1.800211639404296875e+02
1.007999992370605469e+01,1.750953826904296875e+02
1.011999988555908203e+01,1.701892852783203125e+02
1.015999984741210938e+01,1.653032379150390625e+02
1.019999980926513672e+01,1.599959259033203125e+02
1.023999977111816406e+01,1.600996246337890625e+02
1.027999973297119141e+01,1.601984405517578125e+02
1.032000064849853516e+01,1.602871856689453125e+02
1.036000061035156250e+01,1.603713989257812500e+02
1.040000057220458984e+01,1.610711364746093750e+02
1.044000053405761719e+01,1.621552429199218750e+02
1.048000049591064453e+01,1.625208282470703125e+02
1.052000045776367188e+01,1.628860778808593750e+02
1.056000041961669922e+01,1.632474365234375000e+02
1.060000038146972656e+01,1.631535034179687500e+02
1.064000034332275391e+01,1.626065979003906250e+02
1.068000030517578125e+01,1.620590515136718750e+02
1.072000026702880859e+01,1.615110321044921875e+02
1.076000022888183594e+01,1.609623870849609375e+02
1.080000019073486328e+01,1.603233642578125000e+02
1.084000015258789062e+01,1.595833740234375000e+02
1.088000011444091797e+01,1.588387756347656250e+02
1.092000007629394531e+01,1.580809936523437500e+02
1.096000003814697266e+01,1.573240051269531250e+02
1.100000000000000000e+01,1.564834289550781250e+02
1.103999996185302734e+01,1.555600433349609375e+02
1.107999992370605469e+01,1.546389160156250000e+02
1.111999988555908203e+01,1.543731079101562500e+02
1.115999984741210938e+01,1.541063232421875000e+02
1.119999980926513672e+01,1.534579467773437500e+02
1.123999977111816406e+01,1.524286346435546875e+02
1.127999973297119141e+01,1.513996429443359375e+02
1.131999969482421875e+01,1.503626403808593750e+02
1.136000061035156250e+01,1.493263244628906250e+02
1.140000057220458984e+01,1.475912780761718750e+02
1.144000053405761719e+01,1.451569976806640625e+02
1.148000049591064453e+01,1.427222900390625000e+02
1.152000045776367188e+01,1.401781768798828125e+02
1.156000041961669922e+01,1.338525085449218750e+02
1.160000038146972656e+01,1.320532226562500000e+02
1.164000034332275391e+01,1.314931793212890625e+02
1.168000030517578125e+01,1.309299011230468750e+02
1.172000026702880859e+01,1.303688507080078125e+02
1.176000022888183594e+01,1.298029479980468750e+02
1.180000019073486328e+01,1.291585693359375000e+02
1.184000015258789062e+01,1.284389038085937500e+02
1.188000011444091797e+01,1.277198486328125000e+02
1.192000007629394531e+01,1.269834976196289062e+02
1.196000003814697266e+01,1.262440567016601562e+02
1.200000000000000000e+01,1.254129333496093750e+02
1.203999996185302734e+01,1.244910583496093750e+02
1.207999992370605469e+01,1.238415069580078125e+02
1.211999988555908203e+01,1.240032424926757812e+02
1.215999984741210938e+01,1.241644515991210938e+02
1.219999980926513672e+01,1.242668914794921875e+02
1.223999977111816406e+01,1.243101654052734375e+02
1.227999973297119141e+01,1.243528518676757812e+02
1.231999969482421875e+01,1.243796920776367188e+02
1.236000061035156250e+01,1.244058990478515625e+02
1.240000057220458984e+01,1.243507843017578125e+02
1.244000053405761719e+01,1.242146987915039062e+02
1.248000049591064453e+01,1.240779571533203125e+02
1.252000045776367188e+01,1.239422378540039062e+02
1.256000041961669922e+01,1.238061676025390625e+02
1.260000038146972656e+01,1.236264648437500000e+02
1.264000034332275391e+01,1.234030456542968750e+02
1.268000030517578125e+01,1.231795578002929688e+02
1.272000026702880859e+01,1.229437332153320312e+02
1.276000022888183594e+01,1.227077102661132812e+02
1.280000019073486328e+01,1.224447631835937500e+02
1.284000015258789062e+01,1.221548538208007812e+02
1.288000011444091797e+01,1.218652801513671875e+02
1.292000007629394531e+01,1.215780029296875000e+02
1.296000003814697266e+01,1.212905654907226562e+02
1.300000000000000000e+01,1.208861160278320312e+02
1.303999996185302734e+01,1.203650665283203125e+02
1.307999992370605469e+01,1.198446426391601562e+02
1.311999988555908203e+01,1.193339767456054688e+02
1.315999984741210938e+01,1.188222808837890625e+02
1.319999980926513672e+01,1.182451782226562500e+02
1.323999977111816406e+01,1.176035003662109375e+02
1.327999973297119141e+01,1.169189834594726562e+02
1.331999969482421875e+01,1.151200256347656250e+02
1.335999965667724609e+01,1.145024337768554688e+02
1.340000057220458984e+01,1.140778427124023438e+02
1.344000053405761719e+01,1.137944183349609375e+02
1.348000049591064453e+01,1.135103988647460938e+02
1.352000045776367188e+01,1.132220001220703125e+02
1.356000041961669922e+01,1.129333114624023438e+02
1.360000038146972656e+01,1.126076507568359375e+02
1.364000034332275391e+01,1.122452163696289062e+02
1.368000030517578125e+01,1.118821563720703125e+02
1.372000026702880859e+01,1.115165863037109375e+02
1.376000022888183594e+01,1.111506500244140625e+02
1.380000019073486328e+01,1.107557373046875000e+02
1.384000015258789062e+01,1.099329986572265625e+02
1.388000011444091797e+01,1.095045318603515625e+02
1.392000007629394531e+01,1.092796325683593750e+02
1.396000003814697266e+01,1.090553054809570312e+02
1.400000000000000000e+01,1.088514175415039062e+02
1.403999996185302734e+01,1.086682357788085938e+02
1.407999992370605469e+01,1.084847412109375000e+02
1.411999988555908203e+01,1.082927627563476562e+02
1.415999984741210938e+01,1.081003875732421875e+02
1.419999980926513672e+01,1.079049758911132812e+02
1.423999977111816406e+01,1.077063293457031250e+02
1.427999973297119141e+01,1.075072860717773438e+02
1.431999969482421875e+01,1.073308715820312500e+02
1.435999965667724609e+01,1.071540832519531250e+02
1.439999961853027344e+01,1.069652557373046875e+02
1.444000053405761719e+01,1.067610092163085938e+02
1.448000049591064453e+01,1.065566177368164062e+02
1.452000045776367188e+01,1.063351745605468750e+02
1.456000041961669922e+01,1.061134796142578125e+02
1.460000038146972656e+01,1.058894577026367188e+02
1.464000034332275391e+01,1.056632080078125000e+02
1.468000030517578125e+01,1.054368209838867188e+02
1.472000026702880859e+01,1.052268829345703125e+02
1.476000022888183594e+01,1.050167236328125000e+02
1.480000019073486328e+01,1.048044967651367188e+02
1.484000015258789062e+01,1.045901718139648438e+02
1.488000011444091797e+01,1.043753967285156250e+02
1.492000007629394531e+01,1.041370620727539062e+02
1.496000003814697266e+01,1.038985977172851562e+02
1.500000000000000000e+01,1.036605682373046875e+02
1.503999996185302734e+01,1.034228973388671875e+02
1.507999992370605469e+01,1.031850585937500000e+02
1.511999988555908203e+01,1.029671554565429688e+02
1.515999984741210938e+01,1.027491226196289062e+02
1.519999980926513672e+01,1.025274124145507812e+02
1.523999977111816406e+01,1.023020172119140625e+02
1.527999973297119141e+01,1.020763702392578125e+02
1.531999969482421875e+01,1.018456573486328125e+02
1.535999965667724609e+01,1.016145706176757812e+02
1.539999961853027344e+01,1.013839492797851562e+02
1.544000053405761719e+01,1.011536254882812500e+02
1.548000049591064453e+01,1.009230346679687500e+02
1.552000045776367188e+01,1.006928176879882812e+02
1.556000041961669922e+01,1.004623107910156250e+02
1.560000038146972656e+01,1.002375335693359375e+02
1.564000034332275391e+01,1.000183410644531250e+02
1.568000030517578125e+01,9.979874420166015625e+01
1.572000026702880859e+01,9.959240722656250000e+01
1.576000022888183594e+01,9.938565063476562500e+01
1.580000019073486328e+01,9.917256927490234375e+01
1.584000015258789062e+01,9.895303344726562500e+01
1.588000011444091797e+01,9.873115539550781250e+01
1.592000007629394531e+01,9.849401855468750000e+01
1.596000003814697266e+01,9.825677490234375000e+01
1.600000000000000000e+01,9.801628112792968750e+01
1.603999900817871094e+01,9.777275085449218750e+01
1.607999992370605469e+01,9.752894592285156250e+01
1.611999893188476562e+01,9.728369903564453125e+01
1.615999984741210938e+01,9.703816986083984375e+01
1.619999885559082031e+01,9.679248809814453125e+01
1.623999977111816406e+01,9.654651641845703125e+01
1.627999877929687500e+01,9.630043029785156250e+01
1.631999969482421875e+01,9.606191253662109375e+01
1.635999870300292969e+01,9.582321166992187500e+01
1.639999961853027344e+01,9.558421325683593750e+01
1.643999862670898438e+01,9.534503173828125000e+01
1.647999954223632812e+01,9.510562133789062500e+01
1.652000045776367188e+01,9.486373901367187500e+01
1.655999946594238281e+01,9.462172698974609375e+01
1.660000038146972656e+01,9.437941741943359375e+01
1.663999938964843750e+01,9.413696289062500000e+01
1.668000030517578125e+01,9.389434051513671875e+01
1.671999931335449219e+01,9.364209747314453125e+01
1.676000022888183594e+01,9.338961791992187500e+01
1.679999923706054688e+01,9.313697814941406250e+01
1.684000015258789062e+01,9.288430023193359375e+01
1.687999916076660156e+01,9.263134002685546875e+01
1.692000007629394531e+01,9.238816833496093750e+01
1.695999908447265625e+01,9.214476776123046875e+01
1.700000000000000000e+01,9.189896392822265625e+01
1.703999900817871094e+01,9.165082550048828125e+01
1.707999992370605469e+01,9.140252685546875000e+01
1.711999893188476562e+01,9.114743804931640625e+01
1.715999984741210938e+01,9.089223480224609375e+01
1.719999885559082031e+01,9.063707733154296875e+01
1.723999977111816406e+01,9.038192749023437500e+01
1.727999877929687500e+01,9.008344268798828125e+01
1.731999969482421875e+01,8.977565765380859375e+01
1.735999870300292969e+01,8.946820831298828125e+01
1.739999961853027344e+01,8.916107177734375000e+01
1.743999862670898438e+01,8.885383605957031250e+01
1.747999954223632812e+01,8.854591369628906250e+01
