# Start of Energy Bin (keV), Effective Area (cm^2)
1.600000023841857910e+00,9.033698439598083496e-01
1.639999985694885254e+00,1.256823301315307617e+00
1.680000066757202148e+00,1.742043972015380859e+00
1.720000028610229492e+00,2.406156539916992188e+00
1.759999990463256836e+00,3.264294624328613281e+00
1.799999952316284180e+00,4.124990463256835938e+00
1.840000033378601074e+00,2.294133186340332031e+00
1.879999995231628418e+00,2.929653167724609375e+00
1.920000076293945312e+00,3.820165634155273438e+00
1.960000038146972656e+00,4.814364910125732422e+00
2.000000000000000000e+00,5.954459190368652344e+00
2.039999961853027344e+00,7.296244144439697266e+00
2.079999923706054688e+00,8.927447319030761719e+00
2.119999885559082031e+00,8.128602981567382812e+00
2.160000085830688477e+00,9.444112777709960938e+00
2.200000047683715820e+00,9.856764793395996094e+00
2.240000009536743164e+00,1.129343414306640625e+01
2.279999971389770508e+00,1.297488975524902344e+01
2.319999933242797852e+00,1.504076576232910156e+01
2.360000133514404297e+00,1.704792785644531250e+01
2.400000095367431641e+00,1.897406005859375000e+01
2.440000057220458984e+00,2.115595245361328125e+01
2.480000019073486328e+00,2.370584487915039062e+01
2.519999980926513672e+00,2.677714157104492188e+01
2.559999942779541016e+00,3.015401649475097656e+01
2.599999904632568359e+00,3.321796798706054688e+01
2.639999866485595703e+00,3.386438369750976562e+01
2.679999828338623047e+00,3.693814086914062500e+01
2.720000028610229492e+00,4.025014877319335938e+01
2.759999990463256836e+00,4.383367156982421875e+01
2.799999952316284180e+00,4.769461822509765625e+01
2.840000152587890625e+00,5.168440628051757812e+01
2.880000114440917969e+00,5.512535858154296875e+01
2.920000076293945312e+00,5.872850036621093750e+01
2.960000038146972656e+00,6.254586791992187500e+01
3.000000000000000000e+00,6.673773956298828125e+01
3.039999961853027344e+00,6.929967498779296875e+01
3.079999923706054688e+00,7.367033386230468750e+01
3.119999885559082031e+00,7.821694946289062500e+01
3.159999847412109375e+00,8.204673767089843750e+01
3.199999809265136719e+00,8.601286315917968750e+01
3.240000009536743164e+00,9.012181091308593750e+01
3.279999971389770508e+00,9.312478637695312500e+01
3.319999933242797852e+00,9.788408660888671875e+01
3.360000133514404297e+00,1.028486480712890625e+02
3.400000095367431641e+00,1.080131225585937500e+02
3.440000057220458984e+00,1.122426147460937500e+02
3.480000019073486328e+00,1.154234466552734375e+02
3.519999980926513672e+00,1.113066329956054688e+02
3.559999942779541016e+00,1.144674606323242188e+02
3.599999904632568359e+00,1.177499618530273438e+02
3.639999866485595703e+00,1.210818176269531250e+02
3.679999828338623047e+00,1.244676132202148438e+02
3.719999790191650391e+00,1.240572891235351562e+02
3.759999752044677734e+00,1.275503768920898438e+02
3.800000190734863281e+00,1.306191253662109375e+02
3.840000152587890625e+00,1.333948364257812500e+02
3.880000114440917969e+00,1.361820678710937500e+02
3.920000076293945312e+00,1.395942840576171875e+02
3.960000038146972656e+00,1.432514343261718750e+02
4.000000000000000000e+00,1.448560638427734375e+02
4.039999961853027344e+00,1.484378967285156250e+02
4.079999923706054688e+00,1.520633544921875000e+02
4.119999885559082031e+00,1.557332763671875000e+02
4.159999847412109375e+00,1.594058532714843750e+02
4.199999809265136719e+00,1.625570068359375000e+02
4.239999771118164062e+00,1.657266540527343750e+02
4.279999732971191406e+00,1.689231262207031250e+02
4.320000171661376953e+00,1.650381774902343750e+02
4.360000133514404297e+00,1.657250518798828125e+02
4.400000095367431641e+00,1.685250244140625000e+02
4.440000057220458984e+00,1.713439788818359375e+02
4.480000019073486328e+00,1.741971893310546875e+02
4.519999980926513672e+00,1.770724792480468750e+02
4.559999942779541016e+00,1.799461517333984375e+02
4.599999904632568359e+00,1.775358123779296875e+02
4.639999866485595703e+00,1.801514129638671875e+02
4.679999828338623047e+00,1.825202636718750000e+02
4.719999790191650391e+00,1.848897705078125000e+02
4.759999752044677734e+00,1.872617645263671875e+02
4.799999713897705078e+00,1.896365051269531250e+02
4.840000152587890625e+00,1.920017242431640625e+02
4.880000114440917969e+00,1.943639678955078125e+02
4.920000076293945312e+00,1.942853851318359375e+02
4.960000038146972656e+00,1.966481170654296875e+02
5.000000000000000000e+00,1.989597167968750000e+02
5.039999961853027344e+00,2.013840942382812500e+02
5.079999923706054688e+00,2.036540985107421875e+02
5.119999885559082031e+00,2.059176330566406250e+02
5.159999847412109375e+00,2.081763458251953125e+02
5.199999809265136719e+00,2.104274597167968750e+02
5.239999771118164062e+00,2.126730957031250000e+02
5.279999732971191406e+00,2.149193267822265625e+02
5.320000171661376953e+00,2.171657867431640625e+02
5.360000133514404297e+00,2.194128265380859375e+02
5.400000095367431641e+00,2.216560516357421875e+02
5.440000057220458984e+00,2.238931884765625000e+02
5.480000019073486328e+00,2.261288757324218750e+02
5.519999980926513672e+00,2.283633117675781250e+02
5.559999942779541016e+00,2.304386596679687500e+02
5.599999904632568359e+00,2.323458862304687500e+02
5.639999866485595703e+00,2.342466735839843750e+02
5.679999828338623047e+00,2.361426849365234375e+02
5.719999790191650391e+00,2.380352172851562500e+02
5.759999752044677734e+00,2.399231567382812500e+02
5.799999713897705078e+00,2.417872009277343750e+02
5.839999675750732422e+00,2.436285858154296875e+02
5.879999637603759766e+00,2.454650878906250000e+02
5.919999599456787109e+00,2.472968292236328125e+02
5.960000038146972656e+00,2.491235046386718750e+02
6.000000000000000000e+00,2.508072509765625000e+02
6.039999961853027344e+00,2.523447875976562500e+02
6.079999923706054688e+00,2.538749084472656250e+02
6.119999885559082031e+00,2.552752532958984375e+02
6.159999847412109375e+00,2.565851440429687500e+02
6.199999809265136719e+00,2.578962707519531250e+02
6.239999771118164062e+00,2.592095031738281250e+02
6.279999732971191406e+00,2.605150756835937500e+02
6.319999694824218750e+00,2.618132934570312500e+02
6.359999656677246094e+00,2.631036682128906250e+02
6.399999618530273438e+00,2.643809509277343750e+02
6.439999580383300781e+00,2.656453552246093750e+02
6.480000019073486328e+00,2.669025268554687500e+02
6.519999980926513672e+00,2.681526184082031250e+02
6.559999942779541016e+00,2.693958435058593750e+02
6.599999904632568359e+00,2.706270751953125000e+02
6.639999866485595703e+00,2.718464050292968750e+02
6.679999828338623047e+00,2.730592346191406250e+02
6.719999790191650391e+00,2.742094421386718750e+02
6.759999752044677734e+00,2.752352905273437500e+02
6.799999713897705078e+00,2.762431945800781250e+02
6.839999675750732422e+00,2.772336425781250000e+02
6.879999637603759766e+00,2.782173461914062500e+02
6.919999599456787109e+00,2.791945495605468750e+02
6.959999561309814453e+00,2.801651916503906250e+02
7.000000000000000000e+00,2.810619201660156250e+02
7.039999961853027344e+00,2.818841247558593750e+02
7.079999923706054688e+00,2.827011413574218750e+02
7.119999885559082031e+00,2.820116577148437500e+02
7.159999847412109375e+00,2.828021240234375000e+02
7.199999809265136719e+00,2.836018981933593750e+02
7.239999771118164062e+00,2.844119873046875000e+02
7.279999732971191406e+00,2.852159729003906250e+02
7.319999694824218750e+00,2.860136413574218750e+02
7.359999656677246094e+00,2.868052673339843750e+02
7.399999618530273438e+00,2.875804443359375000e+02
7.439999580383300781e+00,2.883392028808593750e+02
7.479999542236328125e+00,2.890925598144531250e+02
7.519999980926513672e+00,2.898401794433593750e+02
7.559999942779541016e+00,2.905823364257812500e+02
7.599999904632568359e+00,2.913106079101562500e+02
7.639999866485595703e+00,2.920246582031250000e+02
7.679999828338623047e+00,2.927338256835937500e+02
7.719999790191650391e+00,2.934378662109375000e+02
7.759999752044677734e+00,2.941375732421875000e+02
7.799999713897705078e+00,2.948245544433593750e+02
7.839999675750732422e+00,2.954981079101562500e+02
7.879999637603759766e+00,2.961669616699218750e+02
7.919999599456787109e+00,2.968315429687500000e+02
7.959999561309814453e+00,2.974914855957031250e+02
7.999999523162841797e+00,2.981213073730468750e+02
8.039999961853027344e+00,2.987211303710937500e+02
8.079999923706054688e+00,2.993167724609375000e+02
8.119999885559082031e+00,2.999078369140625000e+02
8.159999847412109375e+00,3.004137878417968750e+02
8.199999809265136719e+00,3.008993530273437500e+02
8.239999771118164062e+00,3.013880004882812500e+02
8.279999732971191406e+00,3.019418029785156250e+02
8.319999694824218750e+00,3.024920349121093750e+02
8.359999656677246094e+00,3.030384826660156250e+02
8.399999618530273438e+00,3.035574340820312500e+02
8.439999580383300781e+00,3.040496215820312500e+02
8.479999542236328125e+00,3.045379943847656250e+02
8.520000457763671875e+00,3.050228271484375000e+02
8.560000419616699219e+00,3.055039367675781250e+02
8.600000381469726562e+00,3.059438476562500000e+02
8.640000343322753906e+00,3.063421325683593750e+02
8.680000305175781250e+00,3.067366943359375000e+02
8.720000267028808594e+00,3.071277160644531250e+02
8.760000228881835938e+00,3.075150756835937500e+02
8.800000190734863281e+00,3.078474731445312500e+02
8.840000152587890625e+00,3.081247863769531250e+02
8.880000114440917969e+00,3.083982238769531250e+02
8.920000076293945312e+00,3.086755371093750000e+02
8.960000038146972656e+00,3.089042053222656250e+02
9.000000000000000000e+00,3.090415649414062500e+02
9.039999961853027344e+00,3.091123962402343750e+02
9.079999923706054688e+00,3.091792907714843750e+02
9.119999885559082031e+00,3.092550964355468750e+02
9.159999847412109375e+00,3.094139709472656250e+02
9.199999809265136719e+00,3.095012207031250000e+02
9.239999771118164062e+00,3.095165100097656250e+02
9.279999732971191406e+00,3.095277709960937500e+02
9.319999694824218750e+00,3.095332031250000000e+02
9.359999656677246094e+00,3.095345764160156250e+02
9.399999618530273438e+00,3.094576721191406250e+02
9.439999580383300781e+00,3.093024291992187500e+02
9.479999542236328125e+00,3.091431274414062500e+02
9.519999504089355469e+00,3.089809265136718750e+02
9.560000419616699219e+00,3.088150024414062500e+02
9.600000381469726562e+00,3.084070129394531250e+02
9.640000343322753906e+00,3.078285827636718750e+02
9.680000305175781250e+00,3.074617309570312500e+02
9.720000267028808594e+00,3.070896606445312500e+02
9.760000228881835938e+00,3.067135314941406250e+02
9.800000190734863281e+00,3.059082946777343750e+02
9.840000152587890625e+00,3.046646728515625000e+02
9.880000114440917969e+00,3.033881530761718750e+02
9.920000076293945312e+00,3.021090087890625000e+02
9.960000038146972656e+00,3.012749633789062500e+02
1.000000000000000000e+01,2.975734252929687500e+02
1.003999996185302734e+01,2.906764526367187500e+02
1.007999992370605469e+01,2.837624816894531250e+02
1.011999988555908203e+01,2.768328247070312500e+02
1.015999984741210938e+01,2.698878173828125000e+02
1.019999980926513672e+01,2.622434387207031250e+02
1.023999977111816406e+01,2.624395141601562500e+02
1.027999973297119141e+01,2.626264343261718750e+02
1.032000064849853516e+01,2.628209838867187500e+02
1.036000061035156250e+01,2.630069580078125000e+02
1.040000057220458984e+01,2.641542968750000000e+02
1.044000053405761719e+01,2.658871765136718750e+02
1.048000049591064453e+01,2.664508972167968750e+02
1.052000045776367188e+01,2.669918823242187500e+02
1.056000041961669922e+01,2.675275268554687500e+02
1.060000038146972656e+01,2.674499206542968750e+02
1.064000034332275391e+01,2.667627258300781250e+02
1.068000030517578125e+01,2.660737915039062500e+02
1.072000026702880859e+01,2.653890380859375000e+02
1.076000022888183594e+01,2.647029418945312500e+02
1.080000019073486328e+01,2.638989868164062500e+02
1.084000015258789062e+01,2.629595947265625000e+02
1.088000011444091797e+01,2.620109863281250000e+02
1.092000007629394531e+01,2.610587768554687500e+02
1.096000003814697266e+01,2.601066589355468750e+02
1.100000000000000000e+01,2.590448303222656250e+02
1.103999996185302734e+01,2.578736572265625000e+02
1.107999992370605469e+01,2.567037048339843750e+02
1.111999988555908203e+01,2.565367126464843750e+02
1.115999984741210938e+01,2.563671875000000000e+02
1.119999980926513672e+01,2.556743927001953125e+02
1.123999977111816406e+01,2.544565887451171875e+02
1.127999973297119141e+01,2.532338256835937500e+02
1.131999969482421875e+01,2.520072326660156250e+02
1.136000061035156250e+01,2.507759399414062500e+02
1.140000057220458984e+01,2.482867889404296875e+02
1.144000053405761719e+01,2.445348358154296875e+02
1.148000049591064453e+01,2.407709197998046875e+02
1.152000045776367188e+01,2.367717132568359375e+02
1.156000041961669922e+01,2.263416442871093750e+02
1.160000038146972656e+01,2.233395233154296875e+02
1.164000034332275391e+01,2.224590759277343750e+02
1.168000030517578125e+01,2.215724792480468750e+02
1.172000026702880859e+01,2.206761779785156250e+02
1.176000022888183594e+01,2.197708282470703125e+02
1.180000019073486328e+01,2.188058929443359375e+02
1.184000015258789062e+01,2.177854003906250000e+02
1.188000011444091797e+01,2.167642059326171875e+02
1.192000007629394531e+01,2.157341613769531250e+02
1.196000003814697266e+01,2.146964569091796875e+02
1.200000000000000000e+01,2.135020751953125000e+02
1.203999996185302734e+01,2.121517791748046875e+02
1.207999992370605469e+01,2.111916351318359375e+02
1.211999988555908203e+01,2.113704223632812500e+02
1.215999984741210938e+01,2.115480804443359375e+02
1.219999980926513672e+01,2.116575317382812500e+02
1.223999977111816406e+01,2.116984100341796875e+02
1.227999973297119141e+01,2.117382354736328125e+02
1.231999969482421875e+01,2.117767181396484375e+02
1.236000061035156250e+01,2.118142242431640625e+02
1.240000057220458984e+01,2.117367553710937500e+02
1.244000053405761719e+01,2.115449066162109375e+02
1.248000049591064453e+01,2.113519134521484375e+02
1.252000045776367188e+01,2.111578216552734375e+02
1.256000041961669922e+01,2.109629669189453125e+02
1.260000038146972656e+01,2.106973876953125000e+02
1.264000034332275391e+01,2.103613128662109375e+02
1.268000030517578125e+01,2.100246124267578125e+02
1.272000026702880859e+01,2.096870727539062500e+02
1.276000022888183594e+01,2.093486328125000000e+02
1.280000019073486328e+01,2.089619598388671875e+02
1.284000015258789062e+01,2.085270996093750000e+02
1.288000011444091797e+01,2.080923461914062500e+02
1.292000007629394531e+01,2.076571350097656250e+02
1.296000003814697266e+01,2.072214050292968750e+02
1.300000000000000000e+01,2.065655670166015625e+02
1.303999996185302734e+01,2.056902770996093750e+02
1.307999992370605469e+01,2.048158721923828125e+02
1.311999988555908203e+01,2.039343414306640625e+02
1.315999984741210938e+01,2.030509490966796875e+02
1.319999980926513672e+01,2.020404968261718750e+02
1.323999977111816406e+01,2.009042816162109375e+02
1.327999973297119141e+01,1.995983276367187500e+02
1.331999969482421875e+01,1.964861602783203125e+02
1.335999965667724609e+01,1.952611694335937500e+02
1.340000057220458984e+01,1.943959197998046875e+02
1.344000053405761719e+01,1.938187255859375000e+02
1.348000049591064453e+01,1.932411956787109375e+02
1.352000045776367188e+01,1.926638793945312500e+02
1.356000041961669922e+01,1.920864562988281250e+02
1.360000038146972656e+01,1.914442138671875000e+02
1.364000034332275391e+01,1.907377777099609375e+02
1.368000030517578125e+01,1.900308380126953125e+02
1.372000026702880859e+01,1.893225555419921875e+02
1.376000022888183594e+01,1.886142578125000000e+02
1.380000019073486328e+01,1.878476867675781250e+02
1.384000015258789062e+01,1.863768310546875000e+02
1.388000011444091797e+01,1.855820312500000000e+02
1.392000007629394531e+01,1.851248168945312500e+02
1.396000003814697266e+01,1.846685638427734375e+02
1.400000000000000000e+01,1.842554016113281250e+02
1.403999996185302734e+01,1.838853149414062500e+02
1.407999992370605469e+01,1.835148162841796875e+02
1.411999988555908203e+01,1.831441497802734375e+02
1.415999984741210938e+01,1.827731323242187500e+02
1.419999980926513672e+01,1.823986206054687500e+02
1.423999977111816406e+01,1.820206451416015625e+02
1.427999973297119141e+01,1.816423339843750000e+02
1.431999969482421875e+01,1.812632598876953125e+02
1.435999965667724609e+01,1.808839721679687500e+02
1.439999961853027344e+01,1.804842681884765625e+02
1.444000053405761719e+01,1.800586090087890625e+02
1.448000049591064453e+01,1.796331176757812500e+02
1.452000045776367188e+01,1.792078704833984375e+02
1.456000041961669922e+01,1.787824554443359375e+02
1.460000038146972656e+01,1.783523101806640625e+02
1.464000034332275391e+01,1.779172668457031250e+02
1.468000030517578125e+01,1.774822235107421875e+02
1.472000026702880859e+01,1.770489349365234375e+02
1.476000022888183594e+01,1.766155853271484375e+02
1.480000019073486328e+01,1.761795654296875000e+02
1.484000015258789062e+01,1.757407379150390625e+02
1.488000011444091797e+01,1.753015136718750000e+02
1.492000007629394531e+01,1.748587341308593750e+02
1.496000003814697266e+01,1.744158935546875000e+02
1.500000000000000000e+01,1.739722442626953125e+02
1.503999996185302734e+01,1.735277099609375000e+02
1.507999992370605469e+01,1.730830993652343750e+02
1.511999988555908203e+01,1.726403961181640625e+02
1.515999984741210938e+01,1.721977081298828125e+02
1.519999980926513672e+01,1.717503356933593750e+02
1.523999977111816406e+01,1.712982940673828125e+02
1.527999973297119141e+01,1.708461608886718750e+02
1.531999969482421875e+01,1.703945007324218750e+02
1.535999965667724609e+01,1.699427795410156250e+02
1.539999961853027344e+01,1.694916229248046875e+02
1.544000053405761719e+01,1.690410461425781250e+02
1.548000049591064453e+01,1.685904083251953125e+02
1.552000045776367188e+01,1.681389007568359375e+02
1.556000041961669922e+01,1.676872100830078125e+02
1.560000038146972656e+01,1.672452697753906250e+02
1.564000034332275391e+01,1.668129730224609375e+02
1.568000030517578125e+01,1.663804931640625000e+02
1.572000026702880859e+01,1.659980926513671875e+02
1.576000022888183594e+01,1.656160278320312500e+02
1.580000019073486328e+01,1.652249603271484375e+02
1.584000015258789062e+01,1.648248291015625000e+02
1.588000011444091797e+01,1.644210052490234375e+02
1.592000007629394531e+01,1.640171813964843750e+02
1.596000003814697266e+01,1.636129455566406250e+02
1.600000000000000000e+01,1.632097015380859375e+02
1.603999900817871094e+01,1.628074340820312500e+02
1.607999992370605469e+01,1.624047393798828125e+02
1.611999893188476562e+01,1.620021667480468750e+02
1.615999984741210938e+01,1.615991058349609375e+02
1.619999885559082031e+01,1.611957092285156250e+02
1.623999977111816406e+01,1.607918395996093750e+02
1.627999877929687500e+01,1.603876342773437500e+02
1.631999969482421875e+01,1.599844360351562500e+02
1.635999870300292969e+01,1.595809020996093750e+02
1.639999961853027344e+01,1.591769866943359375e+02
1.643999862670898438e+01,1.587727508544921875e+02
1.647999954223632812e+01,1.583680267333984375e+02
1.652000045776367188e+01,1.579680328369140625e+02
1.655999946594238281e+01,1.575677185058593750e+02
1.660000038146972656e+01,1.571671295166015625e+02
1.663999938964843750e+01,1.567661590576171875e+02
1.668000030517578125e+01,1.563648529052734375e+02
1.671999931335449219e+01,1.559637145996093750e+02
1.676000022888183594e+01,1.555621948242187500e+02
1.679999923706054688e+01,1.551603393554687500e+02
1.684000015258789062e+01,1.547581329345703125e+02
1.687999916076660156e+01,1.543555908203125000e+02
1.692000007629394531e+01,1.539522552490234375e+02
1.695999908447265625e+01,1.535486755371093750e+02
1.700000000000000000e+01,1.531548461914062500e+02
1.703999900817871094e+01,1.527706451416015625e+02
1.707999992370605469e+01,1.523862457275390625e+02
1.711999893188476562e+01,1.520066680908203125e+02
1.715999984741210938e+01,1.516268157958984375e+02
1.719999885559082031e+01,1.512468566894531250e+02
1.723999977111816406e+01,1.508667297363281250e+02
1.727999877929687500e+01,1.504519805908203125e+02
1.731999969482421875e+01,1.500182495117187500e+02
1.735999870300292969e+01,1.495847167968750000e+02
1.739999961853027344e+01,1.491512451171875000e+02
1.743999862670898438e+01,1.487173156738281250e+02
1.747999954223632812e+01,1.482817993164062500e+02
