# Start of Energy Bin (keV), Effective Area (cm^2)
1.600000023841857910e+00,5.375303030014038086e-01
1.639999985694885254e+00,7.347929477691650391e-01
1.680000066757202148e+00,1.001989126205444336e+00
1.720000028610229492e+00,1.363175153732299805e+00
1.759999990463256836e+00,1.823419690132141113e+00
1.799999952316284180e+00,2.273546457290649414e+00
1.840000033378601074e+00,1.248552560806274414e+00
1.879999995231628418e+00,1.576670408248901367e+00
1.920000076293945312e+00,2.035793066024780273e+00
1.960000038146972656e+00,2.542172193527221680e+00
2.000000000000000000e+00,3.117537736892700195e+00
2.039999961853027344e+00,3.790171384811401367e+00
2.079999923706054688e+00,4.603861331939697266e+00
2.119999885559082031e+00,4.109312534332275391e+00
2.160000085830688477e+00,4.743895530700683594e+00
2.200000047683715820e+00,4.898221015930175781e+00
2.240000009536743164e+00,5.577575683593750000e+00
2.279999971389770508e+00,6.370901584625244141e+00
2.319999933242797852e+00,7.345415115356445312e+00
2.360000133514404297e+00,8.282787322998046875e+00
2.400000095367431641e+00,9.173801422119140625e+00
2.440000057220458984e+00,1.018319129943847656e+01
2.480000019073486328e+00,1.136527252197265625e+01
2.519999980926513672e+00,1.279482364654541016e+01
2.559999942779541016e+00,1.436269855499267578e+01
2.599999904632568359e+00,1.577424240112304688e+01
2.639999866485595703e+00,1.598590183258056641e+01
2.679999828338623047e+00,1.738973999023437500e+01
2.720000028610229492e+00,1.890036392211914062e+01
2.759999990463256836e+00,2.053332328796386719e+01
2.799999952316284180e+00,2.229027938842773438e+01
2.840000152587890625e+00,2.410181999206542969e+01
2.880000114440917969e+00,2.565292358398437500e+01
2.920000076293945312e+00,2.727510643005371094e+01
2.960000038146972656e+00,2.899322509765625000e+01
3.000000000000000000e+00,3.087366485595703125e+01
3.039999961853027344e+00,3.194709587097167969e+01
3.079999923706054688e+00,3.388397979736328125e+01
3.119999885559082031e+00,3.589511108398437500e+01
3.159999847412109375e+00,3.757171249389648438e+01
3.199999809265136719e+00,3.930607986450195312e+01
3.240000009536743164e+00,4.110085296630859375e+01
3.279999971389770508e+00,4.236149978637695312e+01
3.319999933242797852e+00,4.454563903808593750e+01
3.360000133514404297e+00,4.682770156860351562e+01
3.400000095367431641e+00,4.920433044433593750e+01
3.440000057220458984e+00,5.108792495727539062e+01
3.480000019073486328e+00,5.246947479248046875e+01
3.519999980926513672e+00,5.253171920776367188e+01
3.559999942779541016e+00,5.393216323852539062e+01
3.599999904632568359e+00,5.536215209960937500e+01
3.639999866485595703e+00,5.680789947509765625e+01
3.679999828338623047e+00,5.827392959594726562e+01
3.719999790191650391e+00,5.904664611816406250e+01
3.759999752044677734e+00,6.055776977539062500e+01
3.800000190734863281e+00,6.187350463867187500e+01
3.840000152587890625e+00,6.304345321655273438e+01
3.880000114440917969e+00,6.421744537353515625e+01
3.920000076293945312e+00,6.570080566406250000e+01
3.960000038146972656e+00,6.730464172363281250e+01
4.000000000000000000e+00,6.851814270019531250e+01
4.039999961853027344e+00,7.008805084228515625e+01
4.079999923706054688e+00,7.167824554443359375e+01
4.119999885559082031e+00,7.328917694091796875e+01
4.159999847412109375e+00,7.490013885498046875e+01
4.199999809265136719e+00,7.626529693603515625e+01
4.239999771118164062e+00,7.763843536376953125e+01
4.279999732971191406e+00,7.902272033691406250e+01
4.320000171661376953e+00,7.909438323974609375e+01
4.360000133514404297e+00,7.990965270996093750e+01
4.400000095367431641e+00,8.109152221679687500e+01
4.440000057220458984e+00,8.227858734130859375e+01
4.480000019073486328e+00,8.347434234619140625e+01
4.519999980926513672e+00,8.467646026611328125e+01
4.559999942779541016e+00,8.588130950927734375e+01
4.599999904632568359e+00,8.599253082275390625e+01
4.639999866485595703e+00,8.699689483642578125e+01
4.679999828338623047e+00,8.795507049560546875e+01
4.719999790191650391e+00,8.891470336914062500e+01
4.759999752044677734e+00,8.987541961669921875e+01
4.799999713897705078e+00,9.083474731445312500e+01
4.840000152587890625e+00,9.179063415527343750e+01
4.880000114440917969e+00,9.274566650390625000e+01
4.920000076293945312e+00,9.324113464355468750e+01
4.960000038146972656e+00,9.419713592529296875e+01
5.000000000000000000e+00,9.512953948974609375e+01
5.039999961853027344e+00,9.611711120605468750e+01
5.079999923706054688e+00,9.703280639648437500e+01
5.119999885559082031e+00,9.794742584228515625e+01
5.159999847412109375e+00,9.886089324951171875e+01
5.199999809265136719e+00,9.977159881591796875e+01
5.239999771118164062e+00,1.006803512573242188e+02
5.279999732971191406e+00,1.015893936157226562e+02
5.320000171661376953e+00,1.024990310668945312e+02
5.360000133514404297e+00,1.034091644287109375e+02
5.400000095367431641e+00,1.043180313110351562e+02
5.440000057220458984e+00,1.052248687744140625e+02
5.480000019073486328e+00,1.061320571899414062e+02
5.519999980926513672e+00,1.070406799316406250e+02
5.559999942779541016e+00,1.078755645751953125e+02
5.599999904632568359e+00,1.086330337524414062e+02
5.639999866485595703e+00,1.093887176513671875e+02
5.679999828338623047e+00,1.101432571411132812e+02
5.719999790191650391e+00,1.108959503173828125e+02
5.759999752044677734e+00,1.116473236083984375e+02
5.799999713897705078e+00,1.123882675170898438e+02
5.839999675750732422e+00,1.131193771362304688e+02
5.879999637603759766e+00,1.138494338989257812e+02
5.919999599456787109e+00,1.145794143676757812e+02
5.960000038146972656e+00,1.153082885742187500e+02
6.000000000000000000e+00,1.159728164672851562e+02
6.039999961853027344e+00,1.165716552734375000e+02
6.079999923706054688e+00,1.171682891845703125e+02
6.119999885559082031e+00,1.177060623168945312e+02
6.159999847412109375e+00,1.182035598754882812e+02
6.199999809265136719e+00,1.187030944824218750e+02
6.239999771118164062e+00,1.192045211791992188e+02
6.279999732971191406e+00,1.197035827636718750e+02
6.319999694824218750e+00,1.201999511718750000e+02
6.359999656677246094e+00,1.206938934326171875e+02
6.399999618530273438e+00,1.211829299926757812e+02
6.439999580383300781e+00,1.216672134399414062e+02
6.480000019073486328e+00,1.221490859985351562e+02
6.519999980926513672e+00,1.226299514770507812e+02
6.559999942779541016e+00,1.231085968017578125e+02
6.599999904632568359e+00,1.235828552246093750e+02
6.639999866485595703e+00,1.240525894165039062e+02
6.679999828338623047e+00,1.245204772949218750e+02
6.719999790191650391e+00,1.249602661132812500e+02
6.759999752044677734e+00,1.253445816040039062e+02
6.799999713897705078e+00,1.257215728759765625e+02
6.839999675750732422e+00,1.260914535522460938e+02
6.879999637603759766e+00,1.264593124389648438e+02
6.919999599456787109e+00,1.268250808715820312e+02
6.959999561309814453e+00,1.271888122558593750e+02
7.000000000000000000e+00,1.275249862670898438e+02
7.039999961853027344e+00,1.278333129882812500e+02
7.079999923706054688e+00,1.281402282714843750e+02
7.119999885559082031e+00,1.277655563354492188e+02
7.159999847412109375e+00,1.280628356933593750e+02
7.199999809265136719e+00,1.283646087646484375e+02
7.239999771118164062e+00,1.286708984375000000e+02
7.279999732971191406e+00,1.289754028320312500e+02
7.319999694824218750e+00,1.292781372070312500e+02
7.359999656677246094e+00,1.295789489746093750e+02
7.399999618530273438e+00,1.298730010986328125e+02
7.439999580383300781e+00,1.301600494384765625e+02
7.479999542236328125e+00,1.304457244873046875e+02
7.519999980926513672e+00,1.307295074462890625e+02
7.559999942779541016e+00,1.310117034912109375e+02
7.599999904632568359e+00,1.312878875732421875e+02
7.639999866485595703e+00,1.315580596923828125e+02
7.679999828338623047e+00,1.318265838623046875e+02
7.719999790191650391e+00,1.320937347412109375e+02
7.759999752044677734e+00,1.323596343994140625e+02
7.799999713897705078e+00,1.326195678710937500e+02
7.839999675750732422e+00,1.328734588623046875e+02
7.879999637603759766e+00,1.331260986328125000e+02
7.919999599456787109e+00,1.333772735595703125e+02
7.959999561309814453e+00,1.336270141601562500e+02
7.999999523162841797e+00,1.338573150634765625e+02
8.039999961853027344e+00,1.340679321289062500e+02
8.079999923706054688e+00,1.342772216796875000e+02
8.119999885559082031e+00,1.344853515625000000e+02
8.159999847412109375e+00,1.346556549072265625e+02
8.199999809265136719e+00,1.348155975341796875e+02
8.239999771118164062e+00,1.349781188964843750e+02
8.279999732971191406e+00,1.351786804199218750e+02
8.319999694824218750e+00,1.353780670166015625e+02
8.359999656677246094e+00,1.355763397216796875e+02
8.399999618530273438e+00,1.357590789794921875e+02
8.439999580383300781e+00,1.359263458251953125e+02
8.479999542236328125e+00,1.360922698974609375e+02
8.520000457763671875e+00,1.362574310302734375e+02
8.560000419616699219e+00,1.364214019775390625e+02
8.600000381469726562e+00,1.365613098144531250e+02
8.640000343322753906e+00,1.366771087646484375e+02
8.680000305175781250e+00,1.367915802001953125e+02
8.720000267028808594e+00,1.369046478271484375e+02
8.760000228881835938e+00,1.370166778564453125e+02
8.800000190734863281e+00,1.370987396240234375e+02
8.840000152587890625e+00,1.371506958007812500e+02
8.880000114440917969e+00,1.372015228271484375e+02
8.920000076293945312e+00,1.372513275146484375e+02
8.960000038146972656e+00,1.372799072265625000e+02
9.000000000000000000e+00,1.372682647705078125e+02
9.039999961853027344e+00,1.372271728515625000e+02
9.079999923706054688e+00,1.371847534179687500e+02
9.119999885559082031e+00,1.371531524658203125e+02
9.159999847412109375e+00,1.371677703857421875e+02
9.199999809265136719e+00,1.371549072265625000e+02
9.239999771118164062e+00,1.371145477294921875e+02
9.279999732971191406e+00,1.370726165771484375e+02
9.319999694824218750e+00,1.370268554687500000e+02
9.359999656677246094e+00,1.369795074462890625e+02
9.399999618530273438e+00,1.369016571044921875e+02
9.439999580383300781e+00,1.367934112548828125e+02
9.479999542236328125e+00,1.366836242675781250e+02
9.519999504089355469e+00,1.365724487304687500e+02
9.560000419616699219e+00,1.364599304199218750e+02
9.600000381469726562e+00,1.362776947021484375e+02
9.640000343322753906e+00,1.360382690429687500e+02
9.680000305175781250e+00,1.358347473144531250e+02
9.720000267028808594e+00,1.356296234130859375e+02
9.760000228881835938e+00,1.354229431152343750e+02
9.800000190734863281e+00,1.350221862792968750e+02
9.840000152587890625e+00,1.344232482910156250e+02
9.880000114440917969e+00,1.338101959228515625e+02
9.920000076293945312e+00,1.331962738037109375e+02
9.960000038146972656e+00,1.327627105712890625e+02
1.000000000000000000e+01,1.310428466796875000e+02
1.003999996185302734e+01,1.279072265625000000e+02
1.007999992370605469e+01,1.247687377929687500e+02
1.011999988555908203e+01,1.216277389526367188e+02
1.015999984741210938e+01,1.184847183227539062e+02
1.019999980926513672e+01,1.150403289794921875e+02
1.023999977111816406e+01,1.151082763671875000e+02
1.027999973297119141e+01,1.151724624633789062e+02
1.032000064849853516e+01,1.152332992553710938e+02
1.036000061035156250e+01,1.152905960083007812e+02
1.040000057220458984e+01,1.157723236083984375e+02
1.044000053405761719e+01,1.165131225585937500e+02
1.048000049591064453e+01,1.167411117553710938e+02
1.052000045776367188e+01,1.169666213989257812e+02
1.056000041961669922e+01,1.171897125244140625e+02
1.060000038146972656e+01,1.171359786987304688e+02
1.064000034332275391e+01,1.168067092895507812e+02
1.068000030517578125e+01,1.164770126342773438e+02
1.072000026702880859e+01,1.161467437744140625e+02
1.076000022888183594e+01,1.158160247802734375e+02
1.080000019073486328e+01,1.154327316284179688e+02
1.084000015258789062e+01,1.149889984130859375e+02
1.088000011444091797e+01,1.145416336059570312e+02
1.092000007629394531e+01,1.140945587158203125e+02
1.096000003814697266e+01,1.136476516723632812e+02
1.100000000000000000e+01,1.131514816284179688e+02
1.103999996185302734e+01,1.126062927246093750e+02
1.107999992370605469e+01,1.120619277954101562e+02
1.111999988555908203e+01,1.119621200561523438e+02
1.115999984741210938e+01,1.118613662719726562e+02
1.119999980926513672e+01,1.115246658325195312e+02
1.123999977111816406e+01,1.109513549804687500e+02
1.127999973297119141e+01,1.103765258789062500e+02
1.131999969482421875e+01,1.097999191284179688e+02
1.136000061035156250e+01,1.092219924926757812e+02
1.140000057220458984e+01,1.080976791381835938e+02
1.144000053405761719e+01,1.064254684448242188e+02
1.148000049591064453e+01,1.047493972778320312e+02
1.152000045776367188e+01,1.029751510620117188e+02
1.156000041961669922e+01,9.831764221191406250e+01
1.160000038146972656e+01,9.699676513671875000e+01
1.164000034332275391e+01,9.660079956054687500e+01
1.168000030517578125e+01,9.620227050781250000e+01
1.172000026702880859e+01,9.579969024658203125e+01
1.176000022888183594e+01,9.539340209960937500e+01
1.180000019073486328e+01,9.495677185058593750e+01
1.184000015258789062e+01,9.449177551269531250e+01
1.188000011444091797e+01,9.402667999267578125e+01
1.192000007629394531e+01,9.356340789794921875e+01
1.196000003814697266e+01,9.309712219238281250e+01
1.200000000000000000e+01,9.256201934814453125e+01
1.203999996185302734e+01,9.195867156982421875e+01
1.207999992370605469e+01,9.152993774414062500e+01
1.211999988555908203e+01,9.159978485107421875e+01
1.215999984741210938e+01,9.166912078857421875e+01
1.219999980926513672e+01,9.170642089843750000e+01
1.223999977111816406e+01,9.171145629882812500e+01
1.227999973297119141e+01,9.171603393554687500e+01
1.231999969482421875e+01,9.173072052001953125e+01
1.236000061035156250e+01,9.174492645263671875e+01
1.240000057220458984e+01,9.170716857910156250e+01
1.244000053405761719e+01,9.161766052246093750e+01
1.248000049591064453e+01,9.152764892578125000e+01
1.252000045776367188e+01,9.143210601806640625e+01
1.256000041961669922e+01,9.133631134033203125e+01
1.260000038146972656e+01,9.120911407470703125e+01
1.264000034332275391e+01,9.105048370361328125e+01
1.268000030517578125e+01,9.089179229736328125e+01
1.272000026702880859e+01,9.072753143310546875e+01
1.276000022888183594e+01,9.056307983398437500e+01
1.280000019073486328e+01,9.037728118896484375e+01
1.284000015258789062e+01,9.017014312744140625e+01
1.288000011444091797e+01,8.996320343017578125e+01
1.292000007629394531e+01,8.976654815673828125e+01
1.296000003814697266e+01,8.956970214843750000e+01
1.300000000000000000e+01,8.927633666992187500e+01
1.303999996185302734e+01,8.888683319091796875e+01
1.307999992370605469e+01,8.849779510498046875e+01
1.311999988555908203e+01,8.809574127197265625e+01
1.315999984741210938e+01,8.769313049316406250e+01
1.319999980926513672e+01,8.723523712158203125e+01
1.323999977111816406e+01,8.672282409667968750e+01
1.327999973297119141e+01,8.615398406982421875e+01
1.331999969482421875e+01,8.478092193603515625e+01
1.335999965667724609e+01,8.426123046875000000e+01
1.340000057220458984e+01,8.389505767822265625e+01
1.344000053405761719e+01,8.364974212646484375e+01
1.348000049591064453e+01,8.340421295166015625e+01
1.352000045776367188e+01,8.315372467041015625e+01
1.356000041961669922e+01,8.290324401855468750e+01
1.360000038146972656e+01,8.262393188476562500e+01
1.364000034332275391e+01,8.231594848632812500e+01
1.368000030517578125e+01,8.200780487060546875e+01
1.372000026702880859e+01,8.169985961914062500e+01
1.376000022888183594e+01,8.139189910888671875e+01
1.380000019073486328e+01,8.105973815917968750e+01
1.384000015258789062e+01,8.041171264648437500e+01
1.388000011444091797e+01,8.006505584716796875e+01
1.392000007629394531e+01,7.986957550048828125e+01
1.396000003814697266e+01,7.967463684082031250e+01
1.400000000000000000e+01,7.949761199951171875e+01
1.403999996185302734e+01,7.933863830566406250e+01
1.407999992370605469e+01,7.917951965332031250e+01
1.411999988555908203e+01,7.902009582519531250e+01
1.415999984741210938e+01,7.886045837402343750e+01
1.419999980926513672e+01,7.869917297363281250e+01
1.423999977111816406e+01,7.853609466552734375e+01
1.427999973297119141e+01,7.837281036376953125e+01
1.431999969482421875e+01,7.820959472656250000e+01
1.435999965667724609e+01,7.804625701904296875e+01
1.439999961853027344e+01,7.787413787841796875e+01
1.444000053405761719e+01,7.769084167480468750e+01
1.448000049591064453e+01,7.750759124755859375e+01
1.452000045776367188e+01,7.732436370849609375e+01
1.456000041961669922e+01,7.714106750488281250e+01
1.460000038146972656e+01,7.695565032958984375e+01
1.464000034332275391e+01,7.676819610595703125e+01
1.468000030517578125e+01,7.658074188232421875e+01
1.472000026702880859e+01,7.639472961425781250e+01
1.476000022888183594e+01,7.620867919921875000e+01
1.480000019073486328e+01,7.602128601074218750e+01
1.484000015258789062e+01,7.583248138427734375e+01
1.488000011444091797e+01,7.564349365234375000e+01
1.492000007629394531e+01,7.545169067382812500e+01
1.496000003814697266e+01,7.525991058349609375e+01
1.500000000000000000e+01,7.506771850585937500e+01
1.503999996185302734e+01,7.487509155273437500e+01
1.507999992370605469e+01,7.468243408203125000e+01
1.511999988555908203e+01,7.449109649658203125e+01
1.515999984741210938e+01,7.429982757568359375e+01
1.519999980926513672e+01,7.410626983642578125e+01
1.523999977111816406e+01,7.391041564941406250e+01
1.527999973297119141e+01,7.371453857421875000e+01
1.531999969482421875e+01,7.352005004882812500e+01
1.535999965667724609e+01,7.332543945312500000e+01
1.539999961853027344e+01,7.313107299804687500e+01
1.544000053405761719e+01,7.293683624267578125e+01
1.548000049591064453e+01,7.274256896972656250e+01
1.552000045776367188e+01,7.254703521728515625e+01
1.556000041961669922e+01,7.235144805908203125e+01
1.560000038146972656e+01,7.216013336181640625e+01
1.564000034332275391e+01,7.197299194335937500e+01
1.568000030517578125e+01,7.178571319580078125e+01
1.572000026702880859e+01,7.161617279052734375e+01
1.576000022888183594e+01,7.144666290283203125e+01
1.580000019073486328e+01,7.127330017089843750e+01
1.584000015258789062e+01,7.109597015380859375e+01
1.588000011444091797e+01,7.091705322265625000e+01
1.592000007629394531e+01,7.073921203613281250e+01
1.596000003814697266e+01,7.056134796142578125e+01
1.600000000000000000e+01,7.038368988037109375e+01
1.603999900817871094e+01,7.020638275146484375e+01
1.607999992370605469e+01,7.002888488769531250e+01
1.611999893188476562e+01,6.985128784179687500e+01
1.615999984741210938e+01,6.967347717285156250e+01
1.619999885559082031e+01,6.949559020996093750e+01
1.623999977111816406e+01,6.931751251220703125e+01
1.627999877929687500e+01,6.913935089111328125e+01
1.631999969482421875e+01,6.896231842041015625e+01
1.635999870300292969e+01,6.878517913818359375e+01
1.639999961853027344e+01,6.860787200927734375e+01
1.643999862670898438e+01,6.843045806884765625e+01
1.647999954223632812e+01,6.825292968750000000e+01
1.652000045776367188e+01,6.807660675048828125e+01
1.655999946594238281e+01,6.790021514892578125e+01
1.660000038146972656e+01,6.772364044189453125e+01
1.663999938964843750e+01,6.754698181152343750e+01
1.668000030517578125e+01,6.737023925781250000e+01
1.671999931335449219e+01,6.719340515136718750e+01
1.676000022888183594e+01,6.701639556884765625e+01
1.679999923706054688e+01,6.683924102783203125e+01
1.684000015258789062e+01,6.666207122802734375e+01
1.687999916076660156e+01,6.648467254638671875e+01
1.692000007629394531e+01,6.630625152587890625e+01
1.695999908447265625e+01,6.612768554687500000e+01
1.700000000000000000e+01,6.595336914062500000e+01
1.703999900817871094e+01,6.578331756591796875e+01
1.707999992370605469e+01,6.561315155029296875e+01
1.711999893188476562e+01,6.544510650634765625e+01
1.715999984741210938e+01,6.527692413330078125e+01
1.719999885559082031e+01,6.510873413085937500e+01
1.723999977111816406e+01,6.494050598144531250e+01
1.727999877929687500e+01,6.475482940673828125e+01
1.731999969482421875e+01,6.456278991699218750e+01
1.735999870300292969e+01,6.437084960937500000e+01
1.739999961853027344e+01,6.417897796630859375e+01
1.743999862670898438e+01,6.398688507080078125e+01
1.747999954223632812e+01,6.379416656494140625e+01
