# Start of Energy Bin (keV), Effective Area (cm^2)
1.600000023841857910e+00,5.448287725448608398e-01
1.639999985694885254e+00,7.560899257659912109e-01
1.680000066757202148e+00,1.045331001281738281e+00
1.720000028610229492e+00,1.440139412879943848e+00
1.759999990463256836e+00,1.948706269264221191e+00
1.799999952316284180e+00,2.453210830688476562e+00
1.840000033378601074e+00,1.358207106590270996e+00
1.879999995231628418e+00,1.732364892959594727e+00
1.920000076293945312e+00,2.263252019882202148e+00
1.960000038146972656e+00,2.857678413391113281e+00
2.000000000000000000e+00,3.542855501174926758e+00
2.039999961853027344e+00,4.353681564331054688e+00
2.079999923706054688e+00,5.342218399047851562e+00
2.119999885559082031e+00,4.871948242187500000e+00
2.160000085830688477e+00,5.664795875549316406e+00
2.200000047683715820e+00,5.915390968322753906e+00
2.240000009536743164e+00,6.779351711273193359e+00
2.279999971389770508e+00,7.790762424468994141e+00
2.319999933242797852e+00,9.035757064819335938e+00
2.360000133514404297e+00,1.024670505523681641e+01
2.400000095367431641e+00,1.140961837768554688e+01
2.440000057220458984e+00,1.272688102722167969e+01
2.480000019073486328e+00,1.426668834686279297e+01
2.519999980926513672e+00,1.612309646606445312e+01
2.559999942779541016e+00,1.816388130187988281e+01
2.599999904632568359e+00,2.001526260375976562e+01
2.639999866485595703e+00,2.041039276123046875e+01
2.679999828338623047e+00,2.226502799987792969e+01
2.720000028610229492e+00,2.425815582275390625e+01
2.759999990463256836e+00,2.641436767578125000e+01
2.799999952316284180e+00,2.873659896850585938e+01
2.840000152587890625e+00,3.113777732849121094e+01
2.880000114440917969e+00,3.320917510986328125e+01
2.920000076293945312e+00,3.538610839843750000e+01
2.960000038146972656e+00,3.769292068481445312e+01
3.000000000000000000e+00,4.014820098876953125e+01
3.039999961853027344e+00,4.153824234008789062e+01
3.079999923706054688e+00,4.399766540527343750e+01
3.119999885559082031e+00,4.652982711791992188e+01
3.159999847412109375e+00,4.861730194091796875e+01
3.199999809265136719e+00,5.076883697509765625e+01
3.240000009536743164e+00,5.298744964599609375e+01
3.279999971389770508e+00,5.453913116455078125e+01
3.319999933242797852e+00,5.789226913452148438e+01
3.360000133514404297e+00,6.142359924316406250e+01
3.400000095367431641e+00,6.512426757812500000e+01
3.440000057220458984e+00,6.777841186523437500e+01
3.480000019073486328e+00,6.962365722656250000e+01
3.519999980926513672e+00,6.705973815917968750e+01
3.559999942779541016e+00,6.888053131103515625e+01
3.599999904632568359e+00,7.076933288574218750e+01
3.639999866485595703e+00,7.268243408203125000e+01
3.679999828338623047e+00,7.462226867675781250e+01
3.719999790191650391e+00,7.428014373779296875e+01
3.759999752044677734e+00,7.627209472656250000e+01
3.800000190734863281e+00,7.800434112548828125e+01
3.840000152587890625e+00,7.955612182617187500e+01
3.880000114440917969e+00,8.110957336425781250e+01
3.920000076293945312e+00,8.315121459960937500e+01
3.960000038146972656e+00,8.538091278076171875e+01
4.000000000000000000e+00,8.638870239257812500e+01
4.039999961853027344e+00,8.857705688476562500e+01
4.079999923706054688e+00,9.079373168945312500e+01
4.119999885559082031e+00,9.305832672119140625e+01
4.159999847412109375e+00,9.532771301269531250e+01
4.199999809265136719e+00,9.728800964355468750e+01
4.239999771118164062e+00,9.926188659667968750e+01
4.279999732971191406e+00,1.012545166015625000e+02
4.320000171661376953e+00,9.898184204101562500e+01
4.360000133514404297e+00,9.938403320312500000e+01
4.400000095367431641e+00,1.010306701660156250e+02
4.440000057220458984e+00,1.026873550415039062e+02
4.480000019073486328e+00,1.043634490966796875e+02
4.519999980926513672e+00,1.060662231445312500e+02
4.559999942779541016e+00,1.077673339843750000e+02
4.599999904632568359e+00,1.063036041259765625e+02
4.639999866485595703e+00,1.078489456176757812e+02
4.679999828338623047e+00,1.092459487915039062e+02
4.719999790191650391e+00,1.106162796020507812e+02
4.759999752044677734e+00,1.119868392944335938e+02
4.799999713897705078e+00,1.133575057983398438e+02
4.840000152587890625e+00,1.147209472656250000e+02
4.880000114440917969e+00,1.160813522338867188e+02
4.920000076293945312e+00,1.160025482177734375e+02
4.960000038146972656e+00,1.173809661865234375e+02
5.000000000000000000e+00,1.187277755737304688e+02
5.039999961853027344e+00,1.201428756713867188e+02
5.079999923706054688e+00,1.214665908813476562e+02
5.119999885559082031e+00,1.227825317382812500e+02
5.159999847412109375e+00,1.240949325561523438e+02
5.199999809265136719e+00,1.254017944335937500e+02
5.239999771118164062e+00,1.267043609619140625e+02
5.279999732971191406e+00,1.280066375732421875e+02
5.320000171661376953e+00,1.293115234375000000e+02
5.360000133514404297e+00,1.306161041259765625e+02
5.400000095367431641e+00,1.319174499511718750e+02
5.440000057220458984e+00,1.332141571044921875e+02
5.480000019073486328e+00,1.345093994140625000e+02
5.519999980926513672e+00,1.358137207031250000e+02
5.559999942779541016e+00,1.370229797363281250e+02
5.599999904632568359e+00,1.381315155029296875e+02
5.639999866485595703e+00,1.392353820800781250e+02
5.679999828338623047e+00,1.403360595703125000e+02
5.719999790191650391e+00,1.414238433837890625e+02
5.759999752044677734e+00,1.425084228515625000e+02
5.799999713897705078e+00,1.435773315429687500e+02
5.839999675750732422e+00,1.446313781738281250e+02
5.879999637603759766e+00,1.456820220947265625e+02
5.919999599456787109e+00,1.467193908691406250e+02
5.960000038146972656e+00,1.477530822753906250e+02
6.000000000000000000e+00,1.487055816650390625e+02
6.039999961853027344e+00,1.495750427246093750e+02
6.079999923706054688e+00,1.504396057128906250e+02
6.119999885559082031e+00,1.512487640380859375e+02
6.159999847412109375e+00,1.520041198730468750e+02
6.199999809265136719e+00,1.527595520019531250e+02
6.239999771118164062e+00,1.535155639648437500e+02
6.279999732971191406e+00,1.542667846679687500e+02
6.319999694824218750e+00,1.550009155273437500e+02
6.359999656677246094e+00,1.557300415039062500e+02
6.399999618530273438e+00,1.564499664306640625e+02
6.439999580383300781e+00,1.571608276367187500e+02
6.480000019073486328e+00,1.578670959472656250e+02
6.519999980926513672e+00,1.585688323974609375e+02
6.559999942779541016e+00,1.592661743164062500e+02
6.599999904632568359e+00,1.599546813964843750e+02
6.639999866485595703e+00,1.606343994140625000e+02
6.679999828338623047e+00,1.613099060058593750e+02
6.719999790191650391e+00,1.619442749023437500e+02
6.759999752044677734e+00,1.625048370361328125e+02
6.799999713897705078e+00,1.630522155761718750e+02
6.839999675750732422e+00,1.635866394042968750e+02
6.879999637603759766e+00,1.641167144775390625e+02
6.919999599456787109e+00,1.646682739257812500e+02
6.959999561309814453e+00,1.652157897949218750e+02
7.000000000000000000e+00,1.657242584228515625e+02
7.039999961853027344e+00,1.661932830810546875e+02
7.079999923706054688e+00,1.666592102050781250e+02
7.119999885559082031e+00,1.662105102539062500e+02
7.159999847412109375e+00,1.666340942382812500e+02
7.199999809265136719e+00,1.670532684326171875e+02
7.239999771118164062e+00,1.674685974121093750e+02
7.279999732971191406e+00,1.678799896240234375e+02
7.319999694824218750e+00,1.682983245849609375e+02
7.359999656677246094e+00,1.687128448486328125e+02
7.399999618530273438e+00,1.691115417480468750e+02
7.439999580383300781e+00,1.694944458007812500e+02
7.479999542236328125e+00,1.698738403320312500e+02
7.519999980926513672e+00,1.702523193359375000e+02
7.559999942779541016e+00,1.706272583007812500e+02
7.599999904632568359e+00,1.709820251464843750e+02
7.639999866485595703e+00,1.713162384033203125e+02
7.679999828338623047e+00,1.716471862792968750e+02
7.719999790191650391e+00,1.719749145507812500e+02
7.759999752044677734e+00,1.722996978759765625e+02
7.799999713897705078e+00,1.725980834960937500e+02
7.839999675750732422e+00,1.728694458007812500e+02
7.879999637603759766e+00,1.731376190185546875e+02
7.919999599456787109e+00,1.733949890136718750e+02
7.959999561309814453e+00,1.736490936279296875e+02
7.999999523162841797e+00,1.738521728515625000e+02
8.039999961853027344e+00,1.740041656494140625e+02
8.079999923706054688e+00,1.741529541015625000e+02
8.119999885559082031e+00,1.743281250000000000e+02
8.159999847412109375e+00,1.744531555175781250e+02
8.199999809265136719e+00,1.745439605712890625e+02
8.239999771118164062e+00,1.746345062255859375e+02
8.279999732971191406e+00,1.748236694335937500e+02
8.319999694824218750e+00,1.750012054443359375e+02
8.359999656677246094e+00,1.751757812500000000e+02
8.399999618530273438e+00,1.753195495605468750e+02
8.439999580383300781e+00,1.754328613281250000e+02
8.479999542236328125e+00,1.755430450439453125e+02
8.520000457763671875e+00,1.756652221679687500e+02
8.560000419616699219e+00,1.757843322753906250e+02
8.600000381469726562e+00,1.758746795654296875e+02
8.640000343322753906e+00,1.759359283447265625e+02
8.680000305175781250e+00,1.759940948486328125e+02
8.720000267028808594e+00,1.760406494140625000e+02
8.760000228881835938e+00,1.760841827392578125e+02
8.800000190734863281e+00,1.761031799316406250e+02
8.840000152587890625e+00,1.760976409912109375e+02
8.880000114440917969e+00,1.760889434814453125e+02
8.920000076293945312e+00,1.761075134277343750e+02
8.960000038146972656e+00,1.760974273681640625e+02
9.000000000000000000e+00,1.760499877929687500e+02
9.039999961853027344e+00,1.759794006347656250e+02
9.079999923706054688e+00,1.759057617187500000e+02
9.119999885559082031e+00,1.758370056152343750e+02
9.159999847412109375e+00,1.758808288574218750e+02
9.199999809265136719e+00,1.758987274169921875e+02
9.239999771118164062e+00,1.758905487060546875e+02
9.279999732971191406e+00,1.758790740966796875e+02
9.319999694824218750e+00,1.758813171386718750e+02
9.359999656677246094e+00,1.758802185058593750e+02
9.399999618530273438e+00,1.758435363769531250e+02
9.439999580383300781e+00,1.757711486816406250e+02
9.479999542236328125e+00,1.756954040527343750e+02
9.519999504089355469e+00,1.756201629638671875e+02
9.560000419616699219e+00,1.755417327880859375e+02
9.600000381469726562e+00,1.753268432617187500e+02
9.640000343322753906e+00,1.750161132812500000e+02
9.680000305175781250e+00,1.748244476318359375e+02
9.720000267028808594e+00,1.746428833007812500e+02
9.760000228881835938e+00,1.744577789306640625e+02
9.800000190734863281e+00,1.739894409179687500e+02
9.840000152587890625e+00,1.732320404052734375e+02
9.880000114440917969e+00,1.724540405273437500e+02
9.920000076293945312e+00,1.716962432861328125e+02
9.960000038146972656e+00,1.710691528320312500e+02
1.000000000000000000e+01,1.686162261962890625e+02
1.003999996185302734e+01,1.642521057128906250e+02
1.007999992370605469e+01,1.598973236083984375e+02
1.011999988555908203e+01,1.555270690917968750e+02
1.015999984741210938e+01,1.511690063476562500e+02
1.019999980926513672e+01,1.464184875488281250e+02
1.023999977111816406e+01,1.465670776367187500e+02
1.027999973297119141e+01,1.467109375000000000e+02
1.032000064849853516e+01,1.468587341308593750e+02
1.036000061035156250e+01,1.470020751953125000e+02
1.040000057220458984e+01,1.477081756591796875e+02
1.044000053405761719e+01,1.487661743164062500e+02
1.048000049591064453e+01,1.491658325195312500e+02
1.052000045776367188e+01,1.495686645507812500e+02
1.056000041961669922e+01,1.499682617187500000e+02
1.060000038146972656e+01,1.499561767578125000e+02
1.064000034332275391e+01,1.495343933105468750e+02
1.068000030517578125e+01,1.491112670898437500e+02
1.072000026702880859e+01,1.486518249511718750e+02
1.076000022888183594e+01,1.481914978027343750e+02
1.080000019073486328e+01,1.476487121582031250e+02
1.084000015258789062e+01,1.470139160156250000e+02
1.088000011444091797e+01,1.463742523193359375e+02
1.092000007629394531e+01,1.457343444824218750e+02
1.096000003814697266e+01,1.450947113037109375e+02
1.100000000000000000e+01,1.443779602050781250e+02
1.103999996185302734e+01,1.435846099853515625e+02
1.107999992370605469e+01,1.427927398681640625e+02
1.111999988555908203e+01,1.425932769775390625e+02
1.115999984741210938e+01,1.423926391601562500e+02
1.119999980926513672e+01,1.418412170410156250e+02
1.123999977111816406e+01,1.409394683837890625e+02
1.127999973297119141e+01,1.400371246337890625e+02
1.131999969482421875e+01,1.391447753906250000e+02
1.136000061035156250e+01,1.382518615722656250e+02
1.140000057220458984e+01,1.367017059326171875e+02
1.144000053405761719e+01,1.344932861328125000e+02
1.148000049591064453e+01,1.322827148437500000e+02
1.152000045776367188e+01,1.299409179687500000e+02
1.156000041961669922e+01,1.242060470581054688e+02
1.160000038146972656e+01,1.225449142456054688e+02
1.164000034332275391e+01,1.220396881103515625e+02
1.168000030517578125e+01,1.215313339233398438e+02
1.172000026702880859e+01,1.210597381591796875e+02
1.176000022888183594e+01,1.205830535888671875e+02
1.180000019073486328e+01,1.200339279174804688e+02
1.184000015258789062e+01,1.194149398803710938e+02
1.188000011444091797e+01,1.187959747314453125e+02
1.192000007629394531e+01,1.181297912597656250e+02
1.196000003814697266e+01,1.174603271484375000e+02
1.200000000000000000e+01,1.167044067382812500e+02
1.203999996185302734e+01,1.158626632690429688e+02
1.207999992370605469e+01,1.152718048095703125e+02
1.211999988555908203e+01,1.154266052246093750e+02
1.215999984741210938e+01,1.155808868408203125e+02
1.219999980926513672e+01,1.156811294555664062e+02
1.223999977111816406e+01,1.157271423339843750e+02
1.227999973297119141e+01,1.157725830078125000e+02
1.231999969482421875e+01,1.158190155029296875e+02
1.236000061035156250e+01,1.158649368286132812e+02
1.240000057220458984e+01,1.158352890014648438e+02
1.244000053405761719e+01,1.157304000854492188e+02
1.248000049591064453e+01,1.156248931884765625e+02
1.252000045776367188e+01,1.155047149658203125e+02
1.256000041961669922e+01,1.153841781616210938e+02
1.260000038146972656e+01,1.152226257324218750e+02
1.264000034332275391e+01,1.150202026367187500e+02
1.268000030517578125e+01,1.148175125122070312e+02
1.272000026702880859e+01,1.146184692382812500e+02
1.276000022888183594e+01,1.144190216064453125e+02
1.280000019073486328e+01,1.141939697265625000e+02
1.284000015258789062e+01,1.139433288574218750e+02
1.288000011444091797e+01,1.136927871704101562e+02
1.292000007629394531e+01,1.134259567260742188e+02
1.296000003814697266e+01,1.131589508056640625e+02
1.300000000000000000e+01,1.127809829711914062e+02
1.303999996185302734e+01,1.122924194335937500e+02
1.307999992370605469e+01,1.118044052124023438e+02
1.311999988555908203e+01,1.113134613037109375e+02
1.315999984741210938e+01,1.108215637207031250e+02
1.319999980926513672e+01,1.102681198120117188e+02
1.323999977111816406e+01,1.096537322998046875e+02
1.327999973297119141e+01,1.090050964355468750e+02
1.331999969482421875e+01,1.073730621337890625e+02
1.335999965667724609e+01,1.067938690185546875e+02
1.340000057220458984e+01,1.063933563232421875e+02
1.344000053405761719e+01,1.061252441406250000e+02
1.348000049591064453e+01,1.058566894531250000e+02
1.352000045776367188e+01,1.055878219604492188e+02
1.356000041961669922e+01,1.053186492919921875e+02
1.360000038146972656e+01,1.050142898559570312e+02
1.364000034332275391e+01,1.046750106811523438e+02
1.368000030517578125e+01,1.043351593017578125e+02
1.372000026702880859e+01,1.040114288330078125e+02
1.376000022888183594e+01,1.036872711181640625e+02
1.380000019073486328e+01,1.033357467651367188e+02
1.384000015258789062e+01,1.026011352539062500e+02
1.388000011444091797e+01,1.022267150878906250e+02
1.392000007629394531e+01,1.020075302124023438e+02
1.396000003814697266e+01,1.017887268066406250e+02
1.400000000000000000e+01,1.015892333984375000e+02
1.403999996185302734e+01,1.014090805053710938e+02
1.407999992370605469e+01,1.012285995483398438e+02
1.411999988555908203e+01,1.010675430297851562e+02
1.415999984741210938e+01,1.009061355590820312e+02
1.419999980926513672e+01,1.007414855957031250e+02
1.423999977111816406e+01,1.005736007690429688e+02
1.427999973297119141e+01,1.004053649902343750e+02
1.431999969482421875e+01,1.002388153076171875e+02
1.435999965667724609e+01,1.000719604492187500e+02
1.439999961853027344e+01,9.989366149902343750e+01
1.444000053405761719e+01,9.970076751708984375e+01
1.448000049591064453e+01,9.950778961181640625e+01
1.452000045776367188e+01,9.930197143554687500e+01
1.456000041961669922e+01,9.909592437744140625e+01
1.460000038146972656e+01,9.888759613037109375e+01
1.464000034332275391e+01,9.867689514160156250e+01
1.468000030517578125e+01,9.846604156494140625e+01
1.472000026702880859e+01,9.825630187988281250e+01
1.476000022888183594e+01,9.804640960693359375e+01
1.480000019073486328e+01,9.783459472656250000e+01
1.484000015258789062e+01,9.762080383300781250e+01
1.488000011444091797e+01,9.740664672851562500e+01
1.492000007629394531e+01,9.720281219482421875e+01
1.496000003814697266e+01,9.699874877929687500e+01
1.500000000000000000e+01,9.679491424560546875e+01
1.503999996185302734e+01,9.659122467041015625e+01
1.507999992370605469e+01,9.638729095458984375e+01
1.511999988555908203e+01,9.617807006835937500e+01
1.515999984741210938e+01,9.596869659423828125e+01
1.519999980926513672e+01,9.575602722167968750e+01
1.523999977111816406e+01,9.554008483886718750e+01
1.527999973297119141e+01,9.532390594482421875e+01
1.531999969482421875e+01,9.510968017578125000e+01
1.535999965667724609e+01,9.489521026611328125e+01
1.539999961853027344e+01,9.468118286132812500e+01
1.544000053405761719e+01,9.446759796142578125e+01
1.548000049591064453e+01,9.425379180908203125e+01
1.552000045776367188e+01,9.404790496826171875e+01
1.556000041961669922e+01,9.384171295166015625e+01
1.560000038146972656e+01,9.364093017578125000e+01
1.564000034332275391e+01,9.344555664062500000e+01
1.568000030517578125e+01,9.324984741210937500e+01
1.572000026702880859e+01,9.304680633544921875e+01
1.576000022888183594e+01,9.284355163574218750e+01
1.580000019073486328e+01,9.263467407226562500e+01
1.584000015258789062e+01,9.242012023925781250e+01
1.588000011444091797e+01,9.220346069335937500e+01
1.592000007629394531e+01,9.198781585693359375e+01
1.596000003814697266e+01,9.177187347412109375e+01
1.600000000000000000e+01,9.155377197265625000e+01
1.603999900817871094e+01,9.133349609375000000e+01
1.607999992370605469e+01,9.111296081542968750e+01
1.611999893188476562e+01,9.091225433349609375e+01
1.615999984741210938e+01,9.071115875244140625e+01
1.619999885559082031e+01,9.050973510742187500e+01
1.623999977111816406e+01,9.030792236328125000e+01
1.627999877929687500e+01,9.010578155517578125e+01
1.631999969482421875e+01,8.987597656250000000e+01
1.635999870300292969e+01,8.964601135253906250e+01
1.639999961853027344e+01,8.941581726074218750e+01
1.643999862670898438e+01,8.918547821044921875e+01
1.647999954223632812e+01,8.895486450195312500e+01
1.652000045776367188e+01,8.873558044433593750e+01
1.655999946594238281e+01,8.851609802246093750e+01
1.660000038146972656e+01,8.829640197753906250e+01
1.663999938964843750e+01,8.807644653320312500e+01
1.668000030517578125e+01,8.785626983642578125e+01
1.671999931335449219e+01,8.765165710449218750e+01
1.676000022888183594e+01,8.744670104980468750e+01
1.679999923706054688e+01,8.724144744873046875e+01
1.684000015258789062e+01,8.703585815429687500e+01
1.687999916076660156e+01,8.682995605468750000e+01
1.692000007629394531e+01,8.660235595703125000e+01
1.695999908447265625e+01,8.637458801269531250e+01
1.700000000000000000e+01,8.614462280273437500e+01
1.703999900817871094e+01,8.591240692138671875e+01
1.707999992370605469e+01,8.568013000488281250e+01
1.711999893188476562e+01,8.544940185546875000e+01
1.715999984741210938e+01,8.521856689453125000e+01
1.719999885559082031e+01,8.498773193359375000e+01
1.723999977111816406e+01,8.475684356689453125e+01
1.727999877929687500e+01,8.448796844482421875e+01
1.731999969482421875e+01,8.423207092285156250e+01
1.735999870300292969e+01,8.397629547119140625e+01
1.739999961853027344e+01,8.372055816650390625e+01
1.743999862670898438e+01,8.346456909179687500e+01
1.747999954223632812e+01,8.320770263671875000e+01
