# Start of Energy Bin (keV), Effective Area (cm^2)
1.600000023841857910e+00,7.085691690444946289e-01
1.639999985694885254e+00,9.846938848495483398e-01
1.680000066757202148e+00,1.363306522369384766e+00
1.720000028610229492e+00,1.880886316299438477e+00
1.759999990463256836e+00,2.548761606216430664e+00
1.799999952316284180e+00,3.215507507324218750e+00
1.840000033378601074e+00,1.784837007522583008e+00
1.879999995231628418e+00,2.277911901473999023e+00
1.920000076293945312e+00,2.972587108612060547e+00
1.960000038146972656e+00,3.749055385589599609e+00
2.000000000000000000e+00,4.641309261322021484e+00
2.039999961853027344e+00,5.693728446960449219e+00
2.079999923706054688e+00,6.974628925323486328e+00
2.119999885559082031e+00,6.354081153869628906e+00
2.160000085830688477e+00,7.384100914001464844e+00
2.200000047683715820e+00,7.707758903503417969e+00
2.240000009536743164e+00,8.831480026245117188e+00
2.279999971389770508e+00,1.014675617218017578e+01
2.319999933242797852e+00,1.176472282409667969e+01
2.360000133514404297e+00,1.333740901947021484e+01
2.400000095367431641e+00,1.484703063964843750e+01
2.440000057220458984e+00,1.655705070495605469e+01
2.480000019073486328e+00,1.855567169189453125e+01
2.519999980926513672e+00,2.096314048767089844e+01
2.559999942779541016e+00,2.360979843139648438e+01
2.599999904632568359e+00,2.601067352294921875e+01
2.639999866485595703e+00,2.651864433288574219e+01
2.679999828338623047e+00,2.892552185058593750e+01
2.720000028610229492e+00,3.151894760131835938e+01
2.759999990463256836e+00,3.432497024536132812e+01
2.799999952316284180e+00,3.734792327880859375e+01
2.840000152587890625e+00,4.047275924682617188e+01
2.880000114440917969e+00,4.316855621337890625e+01
2.920000076293945312e+00,4.599146652221679688e+01
2.960000038146972656e+00,4.898229980468750000e+01
3.000000000000000000e+00,5.222756958007812500e+01
3.039999961853027344e+00,5.415478515625000000e+01
3.079999923706054688e+00,5.748785400390625000e+01
3.119999885559082031e+00,6.094900131225585938e+01
3.159999847412109375e+00,6.384293365478515625e+01
3.199999809265136719e+00,6.683507537841796875e+01
3.240000009536743164e+00,6.993006134033203125e+01
3.279999971389770508e+00,7.215887451171875000e+01
3.319999933242797852e+00,7.612673950195312500e+01
3.360000133514404297e+00,8.028230285644531250e+01
3.400000095367431641e+00,8.461853027343750000e+01
3.440000057220458984e+00,8.798057556152343750e+01
3.480000019073486328e+00,9.043258666992187500e+01
3.519999980926513672e+00,8.716715240478515625e+01
3.559999942779541016e+00,8.960108184814453125e+01
3.599999904632568359e+00,9.212766265869140625e+01
3.639999866485595703e+00,9.469017028808593750e+01
3.679999828338623047e+00,9.729207611083984375e+01
3.719999790191650391e+00,9.692507171630859375e+01
3.759999752044677734e+00,9.960623931884765625e+01
3.800000190734863281e+00,1.019531402587890625e+02
3.840000152587890625e+00,1.040686569213867188e+02
3.880000114440917969e+00,1.061906433105468750e+02
3.920000076293945312e+00,1.088576126098632812e+02
3.960000038146972656e+00,1.117367706298828125e+02
4.000000000000000000e+00,1.130156936645507812e+02
4.039999961853027344e+00,1.158379898071289062e+02
4.079999923706054688e+00,1.186955490112304688e+02
4.119999885559082031e+00,1.215919342041015625e+02
4.159999847412109375e+00,1.244917373657226562e+02
4.199999809265136719e+00,1.269854583740234375e+02
4.239999771118164062e+00,1.294946899414062500e+02
4.279999732971191406e+00,1.320260009765625000e+02
4.320000171661376953e+00,1.290208282470703125e+02
4.360000133514404297e+00,1.295561523437500000e+02
4.400000095367431641e+00,1.317321014404296875e+02
4.440000057220458984e+00,1.339223175048828125e+02
4.480000019073486328e+00,1.361388702392578125e+02
4.519999980926513672e+00,1.383722534179687500e+02
4.559999942779541016e+00,1.406039123535156250e+02
4.599999904632568359e+00,1.387066497802734375e+02
4.639999866485595703e+00,1.407359313964843750e+02
4.679999828338623047e+00,1.425720367431640625e+02
4.719999790191650391e+00,1.444082489013671875e+02
4.759999752044677734e+00,1.462460021972656250e+02
4.799999713897705078e+00,1.480853576660156250e+02
4.840000152587890625e+00,1.499167633056640625e+02
4.880000114440917969e+00,1.517454376220703125e+02
4.920000076293945312e+00,1.516683959960937500e+02
4.960000038146972656e+00,1.534969177246093750e+02
5.000000000000000000e+00,1.552850494384765625e+02
5.039999961853027344e+00,1.571616821289062500e+02
5.079999923706054688e+00,1.589181976318359375e+02
5.119999885559082031e+00,1.606701354980468750e+02
5.159999847412109375e+00,1.624180297851562500e+02
5.199999809265136719e+00,1.641595764160156250e+02
5.239999771118164062e+00,1.658963775634765625e+02
5.279999732971191406e+00,1.676334075927734375e+02
5.320000171661376953e+00,1.693683471679687500e+02
5.360000133514404297e+00,1.711033630371093750e+02
5.400000095367431641e+00,1.728349609375000000e+02
5.440000057220458984e+00,1.745612792968750000e+02
5.480000019073486328e+00,1.762861633300781250e+02
5.519999980926513672e+00,1.780110473632812500e+02
5.559999942779541016e+00,1.796116180419921875e+02
5.599999904632568359e+00,1.810807037353515625e+02
5.639999866485595703e+00,1.825443115234375000e+02
5.679999828338623047e+00,1.840039215087890625e+02
5.719999790191650391e+00,1.854601745605468750e+02
5.759999752044677734e+00,1.869126586914062500e+02
5.799999713897705078e+00,1.883457489013671875e+02
5.839999675750732422e+00,1.897605285644531250e+02
5.879999637603759766e+00,1.911712493896484375e+02
5.919999599456787109e+00,1.925782165527343750e+02
5.960000038146972656e+00,1.939809722900390625e+02
6.000000000000000000e+00,1.952743225097656250e+02
6.039999961853027344e+00,1.964557952880859375e+02
6.079999923706054688e+00,1.976313171386718750e+02
6.119999885559082031e+00,1.987056579589843750e+02
6.159999847412109375e+00,1.997094268798828125e+02
6.199999809265136719e+00,2.007138977050781250e+02
6.239999771118164062e+00,2.017197265625000000e+02
6.279999732971191406e+00,2.027193756103515625e+02
6.319999694824218750e+00,2.037131042480468750e+02
6.359999656677246094e+00,2.047006072998046875e+02
6.399999618530273438e+00,2.056773071289062500e+02
6.439999580383300781e+00,2.066434020996093750e+02
6.480000019073486328e+00,2.076037597656250000e+02
6.519999980926513672e+00,2.085585479736328125e+02
6.559999942779541016e+00,2.095078582763671875e+02
6.599999904632568359e+00,2.104471740722656250e+02
6.639999866485595703e+00,2.113765563964843750e+02
6.679999828338623047e+00,2.123007202148437500e+02
6.719999790191650391e+00,2.131758575439453125e+02
6.759999752044677734e+00,2.139541625976562500e+02
6.799999713897705078e+00,2.147175750732421875e+02
6.839999675750732422e+00,2.154664611816406250e+02
6.879999637603759766e+00,2.162099304199218750e+02
6.919999599456787109e+00,2.169482879638671875e+02
6.959999561309814453e+00,2.176813964843750000e+02
7.000000000000000000e+00,2.183647155761718750e+02
7.039999961853027344e+00,2.189978637695312500e+02
7.079999923706054688e+00,2.196269836425781250e+02
7.119999885559082031e+00,2.190872039794921875e+02
7.159999847412109375e+00,2.196972351074218750e+02
7.199999809265136719e+00,2.203103942871093750e+02
7.239999771118164062e+00,2.209275207519531250e+02
7.279999732971191406e+00,2.215398254394531250e+02
7.319999694824218750e+00,2.221442413330078125e+02
7.359999656677246094e+00,2.227438659667968750e+02
7.399999618530273438e+00,2.233292694091796875e+02
7.439999580383300781e+00,2.239005737304687500e+02
7.479999542236328125e+00,2.244675598144531250e+02
7.519999980926513672e+00,2.250313720703125000e+02
7.559999942779541016e+00,2.255908660888671875e+02
7.599999904632568359e+00,2.261367492675781250e+02
7.639999866485595703e+00,2.266687927246093750e+02
7.679999828338623047e+00,2.271968994140625000e+02
7.719999790191650391e+00,2.277224578857421875e+02
7.759999752044677734e+00,2.282445373535156250e+02
7.799999713897705078e+00,2.287522583007812500e+02
7.839999675750732422e+00,2.292450561523437500e+02
7.879999637603759766e+00,2.297340698242187500e+02
7.919999599456787109e+00,2.302181243896484375e+02
7.959999561309814453e+00,2.306984252929687500e+02
7.999999523162841797e+00,2.311381378173828125e+02
8.039999961853027344e+00,2.315371704101562500e+02
8.079999923706054688e+00,2.319327087402343750e+02
8.119999885559082031e+00,2.323245239257812500e+02
8.159999847412109375e+00,2.326501770019531250e+02
8.199999809265136719e+00,2.329472198486328125e+02
8.239999771118164062e+00,2.332441406250000000e+02
8.279999732971191406e+00,2.336223754882812500e+02
8.319999694824218750e+00,2.339974975585937500e+02
8.359999656677246094e+00,2.343694763183593750e+02
8.399999618530273438e+00,2.347025756835937500e+02
8.439999580383300781e+00,2.349973449707031250e+02
8.479999542236328125e+00,2.352887573242187500e+02
8.520000457763671875e+00,2.355823211669921875e+02
8.560000419616699219e+00,2.358726501464843750e+02
8.600000381469726562e+00,2.361139221191406250e+02
8.640000343322753906e+00,2.363057556152343750e+02
8.680000305175781250e+00,2.364942321777343750e+02
8.720000267028808594e+00,2.366738586425781250e+02
8.760000228881835938e+00,2.368502502441406250e+02
8.800000190734863281e+00,2.369769134521484375e+02
8.840000152587890625e+00,2.370537414550781250e+02
8.880000114440917969e+00,2.371270294189453125e+02
8.920000076293945312e+00,2.372122802734375000e+02
8.960000038146972656e+00,2.372596282958984375e+02
9.000000000000000000e+00,2.372413482666015625e+02
9.039999961853027344e+00,2.371765136718750000e+02
9.079999923706054688e+00,2.371081848144531250e+02
9.119999885559082031e+00,2.370583801269531250e+02
9.159999847412109375e+00,2.371055450439453125e+02
9.199999809265136719e+00,2.371083068847656250e+02
9.239999771118164062e+00,2.370664062500000000e+02
9.279999732971191406e+00,2.370208129882812500e+02
9.319999694824218750e+00,2.369614868164062500e+02
9.359999656677246094e+00,2.368984832763671875e+02
9.399999618530273438e+00,2.367838439941406250e+02
9.439999580383300781e+00,2.366175231933593750e+02
9.479999542236328125e+00,2.364475402832031250e+02
9.519999504089355469e+00,2.362695617675781250e+02
9.560000419616699219e+00,2.360881805419921875e+02
9.600000381469726562e+00,2.357225646972656250e+02
9.640000343322753906e+00,2.352276000976562500e+02
9.680000305175781250e+00,2.348937988281250000e+02
9.720000267028808594e+00,2.345592803955078125e+02
9.760000228881835938e+00,2.342211608886718750e+02
9.800000190734863281e+00,2.335292968750000000e+02
9.840000152587890625e+00,2.324765777587890625e+02
9.880000114440917969e+00,2.313982696533203125e+02
9.920000076293945312e+00,2.303150177001953125e+02
9.960000038146972656e+00,2.295088958740234375e+02
1.000000000000000000e+01,2.264143066406250000e+02
1.003999996185302734e+01,2.208363494873046875e+02
1.007999992370605469e+01,2.152596130371093750e+02
1.011999988555908203e+01,2.096873779296875000e+02
1.015999984741210938e+01,2.041178131103515625e+02
1.019999980926513672e+01,1.980237426757812500e+02
1.023999977111816406e+01,1.981678466796875000e+02
1.027999973297119141e+01,1.983052368164062500e+02
1.032000064849853516e+01,1.984372253417968750e+02
1.036000061035156250e+01,1.985628509521484375e+02
1.040000057220458984e+01,1.994308319091796875e+02
1.044000053405761719e+01,2.007567138671875000e+02
1.048000049591064453e+01,2.011974639892578125e+02
1.052000045776367188e+01,2.016293487548828125e+02
1.056000041961669922e+01,2.020569763183593750e+02
1.060000038146972656e+01,2.019833374023437500e+02
1.064000034332275391e+01,2.014114074707031250e+02
1.068000030517578125e+01,2.008382263183593750e+02
1.072000026702880859e+01,2.002803192138671875e+02
1.076000022888183594e+01,1.997213134765625000e+02
1.080000019073486328e+01,1.990654907226562500e+02
1.084000015258789062e+01,1.982997131347656250e+02
1.088000011444091797e+01,1.975271301269531250e+02
1.092000007629394531e+01,1.967385864257812500e+02
1.096000003814697266e+01,1.959503784179687500e+02
1.100000000000000000e+01,1.950714111328125000e+02
1.103999996185302734e+01,1.941022644042968750e+02
1.107999992370605469e+01,1.931345520019531250e+02
1.111999988555908203e+01,1.929413146972656250e+02
1.115999984741210938e+01,1.927463378906250000e+02
1.119999980926513672e+01,1.921238861083984375e+02
1.123999977111816406e+01,1.910735168457031250e+02
1.127999973297119141e+01,1.900207214355468750e+02
1.131999969482421875e+01,1.889666137695312500e+02
1.136000061035156250e+01,1.879103546142578125e+02
1.140000057220458984e+01,1.859220275878906250e+02
1.144000053405761719e+01,1.829995880126953125e+02
1.148000049591064453e+01,1.800716857910156250e+02
1.152000045776367188e+01,1.769845581054687500e+02
1.156000041961669922e+01,1.691537017822265625e+02
1.160000038146972656e+01,1.668857727050781250e+02
1.164000034332275391e+01,1.662100982666015625e+02
1.168000030517578125e+01,1.655300292968750000e+02
1.172000026702880859e+01,1.648400421142578125e+02
1.176000022888183594e+01,1.641434936523437500e+02
1.180000019073486328e+01,1.633781433105468750e+02
1.184000015258789062e+01,1.625472869873046875e+02
1.188000011444091797e+01,1.617165222167968750e+02
1.192000007629394531e+01,1.608809204101562500e+02
1.196000003814697266e+01,1.600402069091796875e+02
1.200000000000000000e+01,1.590799255371093750e+02
1.203999996185302734e+01,1.580008392333984375e+02
1.207999992370605469e+01,1.572360534667968750e+02
1.211999988555908203e+01,1.573849182128906250e+02
1.215999984741210938e+01,1.575328369140625000e+02
1.219999980926513672e+01,1.576192626953125000e+02
1.223999977111816406e+01,1.576439819335937500e+02
1.227999973297119141e+01,1.576678771972656250e+02
1.231999969482421875e+01,1.576910705566406250e+02
1.236000061035156250e+01,1.577135620117187500e+02
1.240000057220458984e+01,1.576410827636718750e+02
1.244000053405761719e+01,1.574741821289062500e+02
1.248000049591064453e+01,1.573064575195312500e+02
1.252000045776367188e+01,1.571394958496093750e+02
1.256000041961669922e+01,1.569720458984375000e+02
1.260000038146972656e+01,1.567487792968750000e+02
1.264000034332275391e+01,1.564698944091796875e+02
1.268000030517578125e+01,1.561906280517578125e+02
1.272000026702880859e+01,1.559100799560546875e+02
1.276000022888183594e+01,1.556289978027343750e+02
1.280000019073486328e+01,1.553106384277343750e+02
1.284000015258789062e+01,1.549549713134765625e+02
1.288000011444091797e+01,1.545995483398437500e+02
1.292000007629394531e+01,1.542430419921875000e+02
1.296000003814697266e+01,1.538862762451171875e+02
1.300000000000000000e+01,1.533666381835937500e+02
1.303999996185302734e+01,1.526846771240234375e+02
1.307999992370605469e+01,1.520035858154296875e+02
1.311999988555908203e+01,1.513173217773437500e+02
1.315999984741210938e+01,1.506299133300781250e+02
1.319999980926513672e+01,1.498500976562500000e+02
1.323999977111816406e+01,1.489788513183593750e+02
1.327999973297119141e+01,1.480404357910156250e+02
1.331999969482421875e+01,1.457659301757812500e+02
1.335999965667724609e+01,1.449025268554687500e+02
1.340000057220458984e+01,1.442935180664062500e+02
1.344000053405761719e+01,1.438821716308593750e+02
1.348000049591064453e+01,1.434704589843750000e+02
1.352000045776367188e+01,1.430558166503906250e+02
1.356000041961669922e+01,1.426410369873046875e+02
1.360000038146972656e+01,1.421763000488281250e+02
1.364000034332275391e+01,1.416620635986328125e+02
1.368000030517578125e+01,1.411473846435546875e+02
1.372000026702880859e+01,1.406373748779296875e+02
1.376000022888183594e+01,1.401272583007812500e+02
1.380000019073486328e+01,1.395773010253906250e+02
1.384000015258789062e+01,1.385074462890625000e+02
1.388000011444091797e+01,1.379400329589843750e+02
1.392000007629394531e+01,1.376214904785156250e+02
1.396000003814697266e+01,1.373035888671875000e+02
1.400000000000000000e+01,1.370150451660156250e+02
1.403999996185302734e+01,1.367559204101562500e+02
1.407999992370605469e+01,1.364964141845703125e+02
1.411999988555908203e+01,1.362364349365234375e+02
1.415999984741210938e+01,1.359761352539062500e+02
1.419999980926513672e+01,1.357123870849609375e+02
1.423999977111816406e+01,1.354452362060546875e+02
1.427999973297119141e+01,1.351777496337890625e+02
1.431999969482421875e+01,1.349099731445312500e+02
1.435999965667724609e+01,1.346419372558593750e+02
1.439999961853027344e+01,1.343588409423828125e+02
1.444000053405761719e+01,1.340565185546875000e+02
1.448000049591064453e+01,1.337542724609375000e+02
1.452000045776367188e+01,1.334519958496093750e+02
1.456000041961669922e+01,1.331495208740234375e+02
1.460000038146972656e+01,1.328437805175781250e+02
1.464000034332275391e+01,1.325346679687500000e+02
1.468000030517578125e+01,1.322254638671875000e+02
1.472000026702880859e+01,1.319250030517578125e+02
1.476000022888183594e+01,1.316244049072265625e+02
1.480000019073486328e+01,1.313214569091796875e+02
1.484000015258789062e+01,1.310160827636718750e+02
1.488000011444091797e+01,1.307102966308593750e+02
1.492000007629394531e+01,1.303867492675781250e+02
1.496000003814697266e+01,1.300631561279296875e+02
1.500000000000000000e+01,1.297392730712890625e+02
1.503999996185302734e+01,1.294149932861328125e+02
1.507999992370605469e+01,1.290906066894531250e+02
1.511999988555908203e+01,1.287749023437500000e+02
1.515999984741210938e+01,1.284591217041015625e+02
1.519999980926513672e+01,1.281392974853515625e+02
1.523999977111816406e+01,1.278154220581054688e+02
1.527999973297119141e+01,1.274914321899414062e+02
1.531999969482421875e+01,1.271755981445312500e+02
1.535999965667724609e+01,1.268596191406250000e+02
1.539999961853027344e+01,1.265439758300781250e+02
1.544000053405761719e+01,1.262286987304687500e+02
1.548000049591064453e+01,1.259132690429687500e+02
1.552000045776367188e+01,1.255895690917968750e+02
1.556000041961669922e+01,1.252657012939453125e+02
1.560000038146972656e+01,1.249491729736328125e+02
1.564000034332275391e+01,1.246399230957031250e+02
1.568000030517578125e+01,1.243304901123046875e+02
1.572000026702880859e+01,1.240391540527343750e+02
1.576000022888183594e+01,1.237479400634765625e+02
1.580000019073486328e+01,1.234497833251953125e+02
1.584000015258789062e+01,1.231446304321289062e+02
1.588000011444091797e+01,1.228367919921875000e+02
1.592000007629394531e+01,1.225365676879882812e+02
1.596000003814697266e+01,1.222360229492187500e+02
1.600000000000000000e+01,1.219353561401367188e+02
1.603999900817871094e+01,1.216345672607421875e+02
1.607999992370605469e+01,1.213334579467773438e+02
1.611999893188476562e+01,1.210344238281250000e+02
1.615999984741210938e+01,1.207350463867187500e+02
1.619999885559082031e+01,1.204353866577148438e+02
1.623999977111816406e+01,1.201353683471679688e+02
1.627999877929687500e+01,1.198350906372070312e+02
1.631999969482421875e+01,1.195410842895507812e+02
1.635999870300292969e+01,1.192467803955078125e+02
1.639999961853027344e+01,1.189521408081054688e+02
1.643999862670898438e+01,1.186572418212890625e+02
1.647999954223632812e+01,1.183619384765625000e+02
1.652000045776367188e+01,1.180589599609375000e+02
1.655999946594238281e+01,1.177557678222656250e+02
1.660000038146972656e+01,1.174523773193359375e+02
1.663999938964843750e+01,1.171487197875976562e+02
1.668000030517578125e+01,1.168448333740234375e+02
1.671999931335449219e+01,1.165422973632812500e+02
1.676000022888183594e+01,1.162394943237304688e+02
1.679999923706054688e+01,1.159364547729492188e+02
1.684000015258789062e+01,1.156331481933593750e+02
1.687999916076660156e+01,1.153296203613281250e+02
1.692000007629394531e+01,1.150176925659179688e+02
1.695999908447265625e+01,1.147056427001953125e+02
1.700000000000000000e+01,1.143973083496093750e+02
1.703999900817871094e+01,1.140926513671875000e+02
1.707999992370605469e+01,1.137879180908203125e+02
1.711999893188476562e+01,1.135054016113281250e+02
1.715999984741210938e+01,1.132226562500000000e+02
1.719999885559082031e+01,1.129398193359375000e+02
1.723999977111816406e+01,1.126568298339843750e+02
1.727999877929687500e+01,1.123384552001953125e+02
1.731999969482421875e+01,1.119870605468750000e+02
1.735999870300292969e+01,1.116359481811523438e+02
1.739999961853027344e+01,1.112850341796875000e+02
1.743999862670898438e+01,1.109339065551757812e+02
1.747999954223632812e+01,1.105817642211914062e+02
