# Start of Energy Bin (keV), Effective Area (cm^2)
1.600000023841857910e+00,6.311330795288085938e-01
1.639999985694885254e+00,8.605582714080810547e-01
1.680000066757202148e+00,1.170482873916625977e+00
1.720000028610229492e+00,1.588290333747863770e+00
1.759999990463256836e+00,2.118995904922485352e+00
1.799999952316284180e+00,2.632083415985107422e+00
1.840000033378601074e+00,1.438958764076232910e+00
1.879999995231628418e+00,1.814922571182250977e+00
1.920000076293945312e+00,2.347846746444702148e+00
1.960000038146972656e+00,2.937348365783691406e+00
2.000000000000000000e+00,3.610678195953369141e+00
2.039999961853027344e+00,4.402208805084228516e+00
2.079999923706054688e+00,5.362390518188476562e+00
2.119999885559082031e+00,4.793691635131835938e+00
2.160000085830688477e+00,5.537893295288085938e+00
2.200000047683715820e+00,5.720643520355224609e+00
2.240000009536743164e+00,6.515310287475585938e+00
2.279999971389770508e+00,7.443460941314697266e+00
2.319999933242797852e+00,8.586285591125488281e+00
2.360000133514404297e+00,9.686793327331542969e+00
2.400000095367431641e+00,1.073366260528564453e+01
2.440000057220458984e+00,1.191950035095214844e+01
2.480000019073486328e+00,1.330850791931152344e+01
2.519999980926513672e+00,1.498826599121093750e+01
2.559999942779541016e+00,1.682998466491699219e+01
2.599999904632568359e+00,1.848725891113281250e+01
2.639999866485595703e+00,1.873839950561523438e+01
2.679999828338623047e+00,2.038358306884765625e+01
2.720000028610229492e+00,2.215381813049316406e+01
2.759999990463256836e+00,2.406736946105957031e+01
2.799999952316284180e+00,2.612566947937011719e+01
2.840000152587890625e+00,2.824962234497070312e+01
2.880000114440917969e+00,3.006955718994140625e+01
2.920000076293945312e+00,3.197315025329589844e+01
2.960000038146972656e+00,3.398945999145507812e+01
3.000000000000000000e+00,3.611238098144531250e+01
3.039999961853027344e+00,3.719984436035156250e+01
3.079999923706054688e+00,3.927718353271484375e+01
3.119999885559082031e+00,4.142098236083984375e+01
3.159999847412109375e+00,4.316059112548828125e+01
3.199999809265136719e+00,4.494996643066406250e+01
3.240000009536743164e+00,4.679133987426757812e+01
3.279999971389770508e+00,4.800852584838867188e+01
3.319999933242797852e+00,5.107973861694335938e+01
3.360000133514404297e+00,5.432141494750976562e+01
3.400000095367431641e+00,5.772331237792968750e+01
3.440000057220458984e+00,6.003424835205078125e+01
3.480000019073486328e+00,6.156900787353515625e+01
3.519999980926513672e+00,6.155392456054687500e+01
3.559999942779541016e+00,6.310373306274414062e+01
3.599999904632568359e+00,6.468271636962890625e+01
3.639999866485595703e+00,6.627458190917968750e+01
3.679999828338623047e+00,6.788432312011718750e+01
3.719999790191650391e+00,6.868789672851562500e+01
3.759999752044677734e+00,7.034585571289062500e+01
3.800000190734863281e+00,7.177117919921875000e+01
3.840000152587890625e+00,7.302221679687500000e+01
3.880000114440917969e+00,7.427304840087890625e+01
3.920000076293945312e+00,7.599575805664062500e+01
3.960000038146972656e+00,7.790383148193359375e+01
4.000000000000000000e+00,7.936186981201171875e+01
4.039999961853027344e+00,8.123439788818359375e+01
4.079999923706054688e+00,8.313258361816406250e+01
4.119999885559082031e+00,8.506843566894531250e+01
4.159999847412109375e+00,8.700701141357421875e+01
4.199999809265136719e+00,8.866225433349609375e+01
4.239999771118164062e+00,9.032875061035156250e+01
4.279999732971191406e+00,9.201039123535156250e+01
4.320000171661376953e+00,9.216127014160156250e+01
4.360000133514404297e+00,9.310530853271484375e+01
4.400000095367431641e+00,9.445107269287109375e+01
4.440000057220458984e+00,9.580169677734375000e+01
4.480000019073486328e+00,9.716149902343750000e+01
4.519999980926513672e+00,9.852856445312500000e+01
4.559999942779541016e+00,9.989782714843750000e+01
4.599999904632568359e+00,9.999417877197265625e+01
4.639999866485595703e+00,1.011283950805664062e+02
4.679999828338623047e+00,1.022080917358398438e+02
4.719999790191650391e+00,1.032902603149414062e+02
4.759999752044677734e+00,1.043729400634765625e+02
4.799999713897705078e+00,1.054529418945312500e+02
4.840000152587890625e+00,1.065278930664062500e+02
4.880000114440917969e+00,1.076011123657226562e+02
4.920000076293945312e+00,1.081386718750000000e+02
4.960000038146972656e+00,1.092097015380859375e+02
5.000000000000000000e+00,1.102522583007812500e+02
5.039999961853027344e+00,1.113600006103515625e+02
5.079999923706054688e+00,1.123852844238281250e+02
5.119999885559082031e+00,1.134077529907226562e+02
5.159999847412109375e+00,1.144282684326171875e+02
5.199999809265136719e+00,1.154446029663085938e+02
5.239999771118164062e+00,1.164577026367187500e+02
5.279999732971191406e+00,1.174704895019531250e+02
5.320000171661376953e+00,1.184880752563476562e+02
5.360000133514404297e+00,1.195056915283203125e+02
5.400000095367431641e+00,1.205208435058593750e+02
5.440000057220458984e+00,1.215326919555664062e+02
5.480000019073486328e+00,1.225443878173828125e+02
5.519999980926513672e+00,1.235510864257812500e+02
5.559999942779541016e+00,1.244720306396484375e+02
5.599999904632568359e+00,1.253025970458984375e+02
5.639999866485595703e+00,1.261300506591796875e+02
5.679999828338623047e+00,1.269556274414062500e+02
5.719999790191650391e+00,1.277846984863281250e+02
5.759999752044677734e+00,1.286117858886718750e+02
5.799999713897705078e+00,1.294254760742187500e+02
5.839999675750732422e+00,1.302263793945312500e+02
5.879999637603759766e+00,1.310256500244140625e+02
5.919999599456787109e+00,1.318182678222656250e+02
5.960000038146972656e+00,1.326090850830078125e+02
6.000000000000000000e+00,1.333298339843750000e+02
6.039999961853027344e+00,1.339790344238281250e+02
6.079999923706054688e+00,1.346253662109375000e+02
6.119999885559082031e+00,1.352094726562500000e+02
6.159999847412109375e+00,1.357470245361328125e+02
6.199999809265136719e+00,1.362859649658203125e+02
6.239999771118164062e+00,1.368260650634765625e+02
6.279999732971191406e+00,1.373631896972656250e+02
6.319999694824218750e+00,1.379079437255859375e+02
6.359999656677246094e+00,1.384496917724609375e+02
6.399999618530273438e+00,1.389842224121093750e+02
6.439999580383300781e+00,1.395115966796875000e+02
6.480000019073486328e+00,1.400360107421875000e+02
6.519999980926513672e+00,1.405532684326171875e+02
6.559999942779541016e+00,1.410677642822265625e+02
6.599999904632568359e+00,1.415749664306640625e+02
6.639999866485595703e+00,1.420747375488281250e+02
6.679999828338623047e+00,1.425721282958984375e+02
6.719999790191650391e+00,1.430294952392578125e+02
6.759999752044677734e+00,1.434230957031250000e+02
6.799999713897705078e+00,1.438046722412109375e+02
6.839999675750732422e+00,1.441744384765625000e+02
6.879999637603759766e+00,1.445415802001953125e+02
6.919999599456787109e+00,1.449073486328125000e+02
6.959999561309814453e+00,1.452705078125000000e+02
7.000000000000000000e+00,1.455944671630859375e+02
7.039999961853027344e+00,1.458789367675781250e+02
7.079999923706054688e+00,1.461614990234375000e+02
7.119999885559082031e+00,1.456558990478515625e+02
7.159999847412109375e+00,1.459164428710937500e+02
7.199999809265136719e+00,1.461681823730468750e+02
7.239999771118164062e+00,1.464110717773437500e+02
7.279999732971191406e+00,1.466514587402343750e+02
7.319999694824218750e+00,1.469123382568359375e+02
7.359999656677246094e+00,1.471706695556640625e+02
7.399999618530273438e+00,1.474086151123046875e+02
7.439999580383300781e+00,1.476258697509765625e+02
7.479999542236328125e+00,1.478410949707031250e+02
7.519999980926513672e+00,1.480537109375000000e+02
7.559999942779541016e+00,1.482640380859375000e+02
7.599999904632568359e+00,1.484485015869140625e+02
7.639999866485595703e+00,1.486069488525390625e+02
7.679999828338623047e+00,1.487629699707031250e+02
7.719999790191650391e+00,1.489075927734375000e+02
7.759999752044677734e+00,1.490502319335937500e+02
7.799999713897705078e+00,1.491664733886718750e+02
7.839999675750732422e+00,1.492561492919921875e+02
7.879999637603759766e+00,1.493437194824218750e+02
7.919999599456787109e+00,1.494562072753906250e+02
7.959999561309814453e+00,1.495664367675781250e+02
7.999999523162841797e+00,1.496415710449218750e+02
8.039999961853027344e+00,1.496812286376953125e+02
8.079999923706054688e+00,1.497187500000000000e+02
8.119999885559082031e+00,1.497383880615234375e+02
8.159999847412109375e+00,1.497153015136718750e+02
8.199999809265136719e+00,1.496712646484375000e+02
8.239999771118164062e+00,1.496419677734375000e+02
8.279999732971191406e+00,1.497181549072265625e+02
8.319999694824218750e+00,1.498104095458984375e+02
8.359999656677246094e+00,1.499006805419921875e+02
8.399999618530273438e+00,1.499726257324218750e+02
8.439999580383300781e+00,1.500262756347656250e+02
8.479999542236328125e+00,1.500776824951171875e+02
8.520000457763671875e+00,1.501306304931640625e+02
8.560000419616699219e+00,1.501815032958984375e+02
8.600000381469726562e+00,1.502140502929687500e+02
8.640000343322753906e+00,1.502281799316406250e+02
8.680000305175781250e+00,1.502401428222656250e+02
8.720000267028808594e+00,1.502475891113281250e+02
8.760000228881835938e+00,1.502531738281250000e+02
8.800000190734863281e+00,1.502416076660156250e+02
8.840000152587890625e+00,1.502128295898437500e+02
8.880000114440917969e+00,1.501821899414062500e+02
8.920000076293945312e+00,1.501634979248046875e+02
8.960000038146972656e+00,1.501209564208984375e+02
9.000000000000000000e+00,1.500491638183593750e+02
9.039999961853027344e+00,1.499600524902343750e+02
9.079999923706054688e+00,1.498688964843750000e+02
9.119999885559082031e+00,1.497864990234375000e+02
9.159999847412109375e+00,1.498220977783203125e+02
9.199999809265136719e+00,1.498362426757812500e+02
9.239999771118164062e+00,1.498290405273437500e+02
9.279999732971191406e+00,1.498192291259765625e+02
9.319999694824218750e+00,1.498407592773437500e+02
9.359999656677246094e+00,1.498597106933593750e+02
9.399999618530273438e+00,1.498490600585937500e+02
9.439999580383300781e+00,1.498088836669921875e+02
9.479999542236328125e+00,1.497660522460937500e+02
9.519999504089355469e+00,1.496893920898437500e+02
9.560000419616699219e+00,1.496102600097656250e+02
9.600000381469726562e+00,1.494568023681640625e+02
9.640000343322753906e+00,1.492425842285156250e+02
9.680000305175781250e+00,1.490666961669921875e+02
9.720000267028808594e+00,1.489065704345703125e+02
9.760000228881835938e+00,1.487435913085937500e+02
9.800000190734863281e+00,1.483286590576171875e+02
9.840000152587890625e+00,1.476567382812500000e+02
9.880000114440917969e+00,1.469674377441406250e+02
9.920000076293945312e+00,1.462743530273437500e+02
9.960000038146972656e+00,1.456548919677734375e+02
1.000000000000000000e+01,1.434272918701171875e+02
1.003999996185302734e+01,1.395519714355468750e+02
1.007999992370605469e+01,1.356927795410156250e+02
1.011999988555908203e+01,1.318548583984375000e+02
1.015999984741210938e+01,1.280341186523437500e+02
1.019999980926513672e+01,1.238921279907226562e+02
1.023999977111816406e+01,1.239790267944335938e+02
1.027999973297119141e+01,1.240622100830078125e+02
1.032000064849853516e+01,1.241357879638671875e+02
1.036000061035156250e+01,1.242058868408203125e+02
1.040000057220458984e+01,1.247528686523437500e+02
1.044000053405761719e+01,1.255974578857421875e+02
1.048000049591064453e+01,1.258845748901367188e+02
1.052000045776367188e+01,1.261667480468750000e+02
1.056000041961669922e+01,1.264457855224609375e+02
1.060000038146972656e+01,1.263664550781250000e+02
1.064000034332275391e+01,1.259305801391601562e+02
1.068000030517578125e+01,1.254941406250000000e+02
1.072000026702880859e+01,1.250577011108398438e+02
1.076000022888183594e+01,1.246206970214843750e+02
1.080000019073486328e+01,1.241129608154296875e+02
1.084000015258789062e+01,1.235263214111328125e+02
1.088000011444091797e+01,1.229360961914062500e+02
1.092000007629394531e+01,1.223336486816406250e+02
1.096000003814697266e+01,1.217318420410156250e+02
1.100000000000000000e+01,1.210655670166015625e+02
1.103999996185302734e+01,1.203354797363281250e+02
1.107999992370605469e+01,1.196071624755859375e+02
1.111999988555908203e+01,1.193923645019531250e+02
1.115999984741210938e+01,1.191768493652343750e+02
1.119999980926513672e+01,1.186658325195312500e+02
1.123999977111816406e+01,1.178598632812500000e+02
1.127999973297119141e+01,1.170542526245117188e+02
1.131999969482421875e+01,1.162329559326171875e+02
1.136000061035156250e+01,1.154124603271484375e+02
1.140000057220458984e+01,1.140591888427734375e+02
1.144000053405761719e+01,1.121728134155273438e+02
1.148000049591064453e+01,1.102862777709960938e+02
1.152000045776367188e+01,1.083264007568359375e+02
1.156000041961669922e+01,1.034513015747070312e+02
1.160000038146972656e+01,1.020692596435546875e+02
1.164000034332275391e+01,1.016407928466796875e+02
1.168000030517578125e+01,1.012098083496093750e+02
1.172000026702880859e+01,1.007775115966796875e+02
1.176000022888183594e+01,1.003414306640625000e+02
1.180000019073486328e+01,9.984717559814453125e+01
1.184000015258789062e+01,9.929711914062500000e+01
1.188000011444091797e+01,9.874746704101562500e+01
1.192000007629394531e+01,9.818550872802734375e+01
1.196000003814697266e+01,9.762107086181640625e+01
1.200000000000000000e+01,9.698622131347656250e+01
1.203999996185302734e+01,9.628166961669921875e+01
1.207999992370605469e+01,9.578894805908203125e+01
1.211999988555908203e+01,9.592795562744140625e+01
1.215999984741210938e+01,9.606661987304687500e+01
1.219999980926513672e+01,9.615924072265625000e+01
1.223999977111816406e+01,9.620550537109375000e+01
1.227999973297119141e+01,9.625132751464843750e+01
1.231999969482421875e+01,9.628436279296875000e+01
1.236000061035156250e+01,9.631694030761718750e+01
1.240000057220458984e+01,9.628617858886718750e+01
1.244000053405761719e+01,9.619230651855468750e+01
1.248000049591064453e+01,9.609792327880859375e+01
1.252000045776367188e+01,9.598741912841796875e+01
1.256000041961669922e+01,9.587666320800781250e+01
1.260000038146972656e+01,9.573194885253906250e+01
1.264000034332275391e+01,9.555322265625000000e+01
1.268000030517578125e+01,9.537448120117187500e+01
1.272000026702880859e+01,9.521293640136718750e+01
1.276000022888183594e+01,9.505117034912109375e+01
1.280000019073486328e+01,9.486834716796875000e+01
1.284000015258789062e+01,9.466442871093750000e+01
1.288000011444091797e+01,9.446067047119140625e+01
1.292000007629394531e+01,9.424430847167968750e+01
1.296000003814697266e+01,9.402779388427734375e+01
1.300000000000000000e+01,9.372139739990234375e+01
1.303999996185302734e+01,9.332543945312500000e+01
1.307999992370605469e+01,9.292990875244140625e+01
1.311999988555908203e+01,9.253607940673828125e+01
1.315999984741210938e+01,9.214143371582031250e+01
1.319999980926513672e+01,9.169619750976562500e+01
1.323999977111816406e+01,9.120102691650390625e+01
1.327999973297119141e+01,9.066718292236328125e+01
1.331999969482421875e+01,8.927084350585937500e+01
1.335999965667724609e+01,8.879513549804687500e+01
1.340000057220458984e+01,8.847034454345703125e+01
1.344000053405761719e+01,8.825478363037109375e+01
1.348000049591064453e+01,8.803877258300781250e+01
1.352000045776367188e+01,8.783072662353515625e+01
1.356000041961669922e+01,8.762238311767578125e+01
1.360000038146972656e+01,8.738554382324218750e+01
1.364000034332275391e+01,8.712028503417968750e+01
1.368000030517578125e+01,8.685444641113281250e+01
1.372000026702880859e+01,8.656913757324218750e+01
1.376000022888183594e+01,8.628353881835937500e+01
1.380000019073486328e+01,8.597528076171875000e+01
1.384000015258789062e+01,8.533477783203125000e+01
1.388000011444091797e+01,8.499873352050781250e+01
1.392000007629394531e+01,8.482788085937500000e+01
1.396000003814697266e+01,8.465744018554687500e+01
1.400000000000000000e+01,8.450295257568359375e+01
1.403999996185302734e+01,8.436462402343750000e+01
1.407999992370605469e+01,8.422603607177734375e+01
1.411999988555908203e+01,8.408915710449218750e+01
1.415999984741210938e+01,8.395194244384765625e+01
1.419999980926513672e+01,8.381260681152343750e+01
1.423999977111816406e+01,8.367098999023437500e+01
1.427999973297119141e+01,8.352901458740234375e+01
1.431999969482421875e+01,8.339369201660156250e+01
1.435999965667724609e+01,8.325807189941406250e+01
1.439999961853027344e+01,8.311338043212890625e+01
1.444000053405761719e+01,8.295700073242187500e+01
1.448000049591064453e+01,8.280049133300781250e+01
1.452000045776367188e+01,8.263387298583984375e+01
1.456000041961669922e+01,8.246702575683593750e+01
1.460000038146972656e+01,8.229869079589843750e+01
1.464000034332275391e+01,8.212896728515625000e+01
1.468000030517578125e+01,8.195908355712890625e+01
1.472000026702880859e+01,8.180400085449218750e+01
1.476000022888183594e+01,8.164870452880859375e+01
1.480000019073486328e+01,8.149202728271484375e+01
1.484000015258789062e+01,8.133392333984375000e+01
1.488000011444091797e+01,8.117543792724609375e+01
1.492000007629394531e+01,8.099962615966796875e+01
1.496000003814697266e+01,8.082365417480468750e+01
1.500000000000000000e+01,8.064820861816406250e+01
1.503999996185302734e+01,8.047325897216796875e+01
1.507999992370605469e+01,8.029811859130859375e+01
1.511999988555908203e+01,8.013365173339843750e+01
1.515999984741210938e+01,7.996906280517578125e+01
1.519999980926513672e+01,7.980158996582031250e+01
1.523999977111816406e+01,7.963122558593750000e+01
1.527999973297119141e+01,7.946063995361328125e+01
1.531999969482421875e+01,7.929832458496093750e+01
1.535999965667724609e+01,7.913563537597656250e+01
1.539999961853027344e+01,7.897309875488281250e+01
1.544000053405761719e+01,7.881060791015625000e+01
1.548000049591064453e+01,7.864783477783203125e+01
1.552000045776367188e+01,7.847106170654296875e+01
1.556000041961669922e+01,7.829406738281250000e+01
1.560000038146972656e+01,7.812126922607421875e+01
1.564000034332275391e+01,7.795259094238281250e+01
1.568000030517578125e+01,7.778358459472656250e+01
1.572000026702880859e+01,7.762792968750000000e+01
1.576000022888183594e+01,7.747184753417968750e+01
1.580000019073486328e+01,7.731045532226562500e+01
1.584000015258789062e+01,7.714365386962890625e+01
1.588000011444091797e+01,7.697500610351562500e+01
1.592000007629394531e+01,7.679600524902343750e+01
1.596000003814697266e+01,7.661690521240234375e+01
1.600000000000000000e+01,7.643459320068359375e+01
1.603999900817871094e+01,7.624923706054687500e+01
1.607999992370605469e+01,7.606364440917968750e+01
1.611999893188476562e+01,7.587405395507812500e+01
1.615999984741210938e+01,7.568421936035156250e+01
1.619999885559082031e+01,7.549426269531250000e+01
1.623999977111816406e+01,7.530407714843750000e+01
1.627999877929687500e+01,7.511378479003906250e+01
1.631999969482421875e+01,7.493648529052734375e+01
1.635999870300292969e+01,7.475899505615234375e+01
1.639999961853027344e+01,7.458122253417968750e+01
1.643999862670898438e+01,7.440325927734375000e+01
1.647999954223632812e+01,7.422506713867187500e+01
1.652000045776367188e+01,7.403726959228515625e+01
1.655999946594238281e+01,7.384933471679687500e+01
1.660000038146972656e+01,7.366117858886718750e+01
1.663999938964843750e+01,7.347290039062500000e+01
1.668000030517578125e+01,7.328446960449218750e+01
1.671999931335449219e+01,7.309323120117187500e+01
1.676000022888183594e+01,7.290177917480468750e+01
1.679999923706054688e+01,7.271015930175781250e+01
1.684000015258789062e+01,7.251847839355468750e+01
1.687999916076660156e+01,7.232654571533203125e+01
1.692000007629394531e+01,7.213722229003906250e+01
1.695999908447265625e+01,7.194772338867187500e+01
1.700000000000000000e+01,7.175743865966796875e+01
1.703999900817871094e+01,7.156639099121093750e+01
1.707999992370605469e+01,7.137522888183593750e+01
1.711999893188476562e+01,7.117445373535156250e+01
1.715999984741210938e+01,7.097358703613281250e+01
1.719999885559082031e+01,7.077278137207031250e+01
1.723999977111816406e+01,7.057197570800781250e+01
1.727999877929687500e+01,7.033385467529296875e+01
1.731999969482421875e+01,7.008665466308593750e+01
1.735999870300292969e+01,6.983978271484375000e+01
1.739999961853027344e+01,6.959318542480468750e+01
1.743999862670898438e+01,6.934655761718750000e+01
1.747999954223632812e+01,6.909943389892578125e+01
