# Start of Energy Bin (keV), Effective Area (cm^2)
1.600000023841857910e+00,9.726446866989135742e-01
1.639999985694885254e+00,1.344870567321777344e+00
1.680000066757202148e+00,1.853796958923339844e+00
1.720000028610229492e+00,2.547866344451904297e+00
1.759999990463256836e+00,3.441211223602294922e+00
1.799999952316284180e+00,4.334580421447753906e+00
1.840000033378601074e+00,2.405112981796264648e+00
1.879999995231628418e+00,3.059088706970214844e+00
1.920000076293945312e+00,3.966305494308471680e+00
1.960000038146972656e+00,4.971742630004882812e+00
2.000000000000000000e+00,6.116133213043212891e+00
2.039999961853027344e+00,7.454138755798339844e+00
2.079999923706054688e+00,9.074137687683105469e+00
2.119999885559082031e+00,8.199947357177734375e+00
2.160000085830688477e+00,9.496674537658691406e+00
2.200000047683715820e+00,9.870387077331542969e+00
2.240000009536743164e+00,1.127835083007812500e+01
2.279999971389770508e+00,1.292404842376708984e+01
2.319999933242797852e+00,1.494067573547363281e+01
2.360000133514404297e+00,1.689006233215332031e+01
2.400000095367431641e+00,1.875224304199218750e+01
2.440000057220458984e+00,2.086144065856933594e+01
2.480000019073486328e+00,2.332707405090332031e+01
2.519999980926513672e+00,2.629875373840332031e+01
2.559999942779541016e+00,2.956314277648925781e+01
2.599999904632568359e+00,3.251573181152343750e+01
2.639999866485595703e+00,3.307213211059570312e+01
2.679999828338623047e+00,3.602648162841796875e+01
2.720000028610229492e+00,3.920887756347656250e+01
2.759999990463256836e+00,4.265045166015625000e+01
2.799999952316284180e+00,4.635653305053710938e+01
2.840000152587890625e+00,5.018017578125000000e+01
2.880000114440917969e+00,5.346490097045898438e+01
2.920000076293945312e+00,5.690231704711914062e+01
2.960000038146972656e+00,6.054309082031250000e+01
3.000000000000000000e+00,6.465110778808593750e+01
3.039999961853027344e+00,6.727438354492187500e+01
3.079999923706054688e+00,7.168965148925781250e+01
3.119999885559082031e+00,7.629731750488281250e+01
3.159999847412109375e+00,8.022579193115234375e+01
3.199999809265136719e+00,8.430625915527343750e+01
3.240000009536743164e+00,8.854582214355468750e+01
3.279999971389770508e+00,9.170307922363281250e+01
3.319999933242797852e+00,9.557024383544921875e+01
3.360000133514404297e+00,9.955932617187500000e+01
3.400000095367431641e+00,1.036732940673828125e+02
3.440000057220458984e+00,1.075467987060546875e+02
3.480000019073486328e+00,1.106541748046875000e+02
3.519999980926513672e+00,1.085299987792968750e+02
3.559999942779541016e+00,1.116461791992187500e+02
3.599999904632568359e+00,1.148638687133789062e+02
3.639999866485595703e+00,1.181307220458984375e+02
3.679999828338623047e+00,1.214535140991210938e+02
3.719999790191650391e+00,1.220457000732421875e+02
3.759999752044677734e+00,1.254897079467773438e+02
3.800000190734863281e+00,1.285300903320312500e+02
3.840000152587890625e+00,1.312836456298828125e+02
3.880000114440917969e+00,1.340545806884765625e+02
3.920000076293945312e+00,1.372696533203125000e+02
3.960000038146972656e+00,1.406660766601562500e+02
4.000000000000000000e+00,1.425563964843750000e+02
4.039999961853027344e+00,1.458736419677734375e+02
4.079999923706054688e+00,1.492294769287109375e+02
4.119999885559082031e+00,1.526320495605468750e+02
4.159999847412109375e+00,1.560324401855468750e+02
4.199999809265136719e+00,1.589186401367187500e+02
4.239999771118164062e+00,1.618195343017578125e+02
4.279999732971191406e+00,1.647423400878906250e+02
4.320000171661376953e+00,1.625278625488281250e+02
4.360000133514404297e+00,1.636331634521484375e+02
4.400000095367431641e+00,1.662837219238281250e+02
4.440000057220458984e+00,1.689509429931640625e+02
4.480000019073486328e+00,1.716463165283203125e+02
4.519999980926513672e+00,1.743612976074218750e+02
4.559999942779541016e+00,1.770790100097656250e+02
4.599999904632568359e+00,1.758598937988281250e+02
4.639999866485595703e+00,1.782581634521484375e+02
4.679999828338623047e+00,1.804777221679687500e+02
4.719999790191650391e+00,1.826949462890625000e+02
4.759999752044677734e+00,1.849154357910156250e+02
4.799999713897705078e+00,1.871374206542968750e+02
4.840000152587890625e+00,1.893522796630859375e+02
4.880000114440917969e+00,1.915656738281250000e+02
4.920000076293945312e+00,1.920040893554687500e+02
4.960000038146972656e+00,1.942254333496093750e+02
5.000000000000000000e+00,1.963984375000000000e+02
5.039999961853027344e+00,1.986820373535156250e+02
5.079999923706054688e+00,2.008137359619140625e+02
5.119999885559082031e+00,2.029480590820312500e+02
5.159999847412109375e+00,2.050795745849609375e+02
5.199999809265136719e+00,2.072056274414062500e+02
5.239999771118164062e+00,2.093280334472656250e+02
5.279999732971191406e+00,2.114519958496093750e+02
5.320000171661376953e+00,2.135711059570312500e+02
5.360000133514404297e+00,2.156917572021484375e+02
5.400000095367431641e+00,2.178102416992187500e+02
5.440000057220458984e+00,2.199246826171875000e+02
5.480000019073486328e+00,2.220393676757812500e+02
5.519999980926513672e+00,2.241476440429687500e+02
5.559999942779541016e+00,2.261011047363281250e+02
5.599999904632568359e+00,2.278917694091796875e+02
5.639999866485595703e+00,2.296780853271484375e+02
5.679999828338623047e+00,2.314612426757812500e+02
5.719999790191650391e+00,2.332494506835937500e+02
5.759999752044677734e+00,2.350345306396484375e+02
5.799999713897705078e+00,2.367984161376953125e+02
5.839999675750732422e+00,2.385422515869140625e+02
5.879999637603759766e+00,2.402830963134765625e+02
5.919999599456787109e+00,2.420210571289062500e+02
5.960000038146972656e+00,2.437558441162109375e+02
6.000000000000000000e+00,2.453462982177734375e+02
6.039999961853027344e+00,2.467892761230468750e+02
6.079999923706054688e+00,2.482266387939453125e+02
6.119999885559082031e+00,2.495449218750000000e+02
6.159999847412109375e+00,2.507765197753906250e+02
6.199999809265136719e+00,2.520112915039062500e+02
6.239999771118164062e+00,2.532495269775390625e+02
6.279999732971191406e+00,2.544817657470703125e+02
6.319999694824218750e+00,2.556959228515625000e+02
6.359999656677246094e+00,2.569038085937500000e+02
6.399999618530273438e+00,2.581010131835937500e+02
6.439999580383300781e+00,2.592877197265625000e+02
6.480000019073486328e+00,2.604685363769531250e+02
6.519999980926513672e+00,2.616503295898437500e+02
6.559999942779541016e+00,2.628266601562500000e+02
6.599999904632568359e+00,2.639935302734375000e+02
6.639999866485595703e+00,2.651508483886718750e+02
6.679999828338623047e+00,2.663032226562500000e+02
6.719999790191650391e+00,2.673957824707031250e+02
6.759999752044677734e+00,2.683684997558593750e+02
6.799999713897705078e+00,2.693262329101562500e+02
6.839999675750732422e+00,2.702694091796875000e+02
6.879999637603759766e+00,2.712072753906250000e+02
6.919999599456787109e+00,2.721399230957031250e+02
6.959999561309814453e+00,2.730673828125000000e+02
7.000000000000000000e+00,2.739153442382812500e+02
7.039999961853027344e+00,2.746830139160156250e+02
7.079999923706054688e+00,2.754466247558593750e+02
7.119999885559082031e+00,2.747501831054687500e+02
7.159999847412109375e+00,2.754969787597656250e+02
7.199999809265136719e+00,2.762633972167968750e+02
7.239999771118164062e+00,2.770502929687500000e+02
7.279999732971191406e+00,2.778323364257812500e+02
7.319999694824218750e+00,2.785960693359375000e+02
7.359999656677246094e+00,2.793548583984375000e+02
7.399999618530273438e+00,2.800995483398437500e+02
7.439999580383300781e+00,2.808301391601562500e+02
7.479999542236328125e+00,2.815565490722656250e+02
7.519999980926513672e+00,2.822850646972656250e+02
7.559999942779541016e+00,2.830092773437500000e+02
7.599999904632568359e+00,2.837233886718750000e+02
7.639999866485595703e+00,2.844271850585937500e+02
7.679999828338623047e+00,2.851269531250000000e+02
7.719999790191650391e+00,2.858230590820312500e+02
7.759999752044677734e+00,2.865157165527343750e+02
7.799999713897705078e+00,2.872001342773437500e+02
7.839999675750732422e+00,2.878757629394531250e+02
7.879999637603759766e+00,2.885478515625000000e+02
7.919999599456787109e+00,2.892164001464843750e+02
7.959999561309814453e+00,2.898813171386718750e+02
7.999999523162841797e+00,2.905344848632812500e+02
8.039999961853027344e+00,2.911758422851562500e+02
8.079999923706054688e+00,2.918141174316406250e+02
8.119999885559082031e+00,2.924491882324218750e+02
8.159999847412109375e+00,2.930020446777343750e+02
8.199999809265136719e+00,2.935447692871093750e+02
8.239999771118164062e+00,2.940719604492187500e+02
8.279999732971191406e+00,2.945791015625000000e+02
8.319999694824218750e+00,2.950831298828125000e+02
8.359999656677246094e+00,2.955841064453125000e+02
8.399999618530273438e+00,2.960737304687500000e+02
8.439999580383300781e+00,2.965525512695312500e+02
8.479999542236328125e+00,2.970282592773437500e+02
8.520000457763671875e+00,2.975085754394531250e+02
8.560000419616699219e+00,2.979859924316406250e+02
8.600000381469726562e+00,2.984493713378906250e+02
8.640000343322753906e+00,2.988983764648437500e+02
8.680000305175781250e+00,2.993446655273437500e+02
8.720000267028808594e+00,2.997734680175781250e+02
8.760000228881835938e+00,3.001997070312500000e+02
8.800000190734863281e+00,3.006097717285156250e+02
8.840000152587890625e+00,3.010037536621093750e+02
8.880000114440917969e+00,3.013951416015625000e+02
8.920000076293945312e+00,3.018090209960937500e+02
8.960000038146972656e+00,3.021764526367187500e+02
9.000000000000000000e+00,3.024979248046875000e+02
9.039999961853027344e+00,3.027976684570312500e+02
9.079999923706054688e+00,3.030946655273437500e+02
9.119999885559082031e+00,3.033703918457031250e+02
9.159999847412109375e+00,3.036349487304687500e+02
9.199999809265136719e+00,3.038666992187500000e+02
9.239999771118164062e+00,3.040655517578125000e+02
9.279999732971191406e+00,3.042618408203125000e+02
9.319999694824218750e+00,3.044385986328125000e+02
9.359999656677246094e+00,3.046126708984375000e+02
9.399999618530273438e+00,3.047321777343750000e+02
9.439999580383300781e+00,3.047972106933593750e+02
9.479999542236328125e+00,3.048596801757812500e+02
9.519999504089355469e+00,3.049541625976562500e+02
9.560000419616699219e+00,3.050464172363281250e+02
9.600000381469726562e+00,3.049381408691406250e+02
9.640000343322753906e+00,3.046819458007812500e+02
9.680000305175781250e+00,3.045819091796875000e+02
9.720000267028808594e+00,3.044621582031250000e+02
9.760000228881835938e+00,3.043397521972656250e+02
9.800000190734863281e+00,3.038491821289062500e+02
9.840000152587890625e+00,3.029807434082031250e+02
9.880000114440917969e+00,3.020804443359375000e+02
9.920000076293945312e+00,3.011781921386718750e+02
9.960000038146972656e+00,3.008983459472656250e+02
1.000000000000000000e+01,2.978697814941406250e+02
1.003999996185302734e+01,2.916166076660156250e+02
1.007999992370605469e+01,2.853189086914062500e+02
1.011999988555908203e+01,2.789772338867187500e+02
1.015999984741210938e+01,2.725922241210937500e+02
1.019999980926513672e+01,2.653896789550781250e+02
1.023999977111816406e+01,2.655672912597656250e+02
1.027999973297119141e+01,2.657351379394531250e+02
1.032000064849853516e+01,2.658939208984375000e+02
1.036000061035156250e+01,2.660434875488281250e+02
1.040000057220458984e+01,2.671705932617187500e+02
1.044000053405761719e+01,2.688969726562500000e+02
1.048000049591064453e+01,2.694482116699218750e+02
1.052000045776367188e+01,2.699944763183593750e+02
1.056000041961669922e+01,2.705360717773437500e+02
1.060000038146972656e+01,2.705292358398437500e+02
1.064000034332275391e+01,2.699767761230468750e+02
1.068000030517578125e+01,2.694228210449218750e+02
1.072000026702880859e+01,2.688671264648437500e+02
1.076000022888183594e+01,2.683101806640625000e+02
1.080000019073486328e+01,2.676384582519531250e+02
1.084000015258789062e+01,2.668337402343750000e+02
1.088000011444091797e+01,2.660195617675781250e+02
1.092000007629394531e+01,2.652050781250000000e+02
1.096000003814697266e+01,2.643903503417968750e+02
1.100000000000000000e+01,2.634669189453125000e+02
1.103999996185302734e+01,2.624349365234375000e+02
1.107999992370605469e+01,2.614036254882812500e+02
1.111999988555908203e+01,2.613421630859375000e+02
1.115999984741210938e+01,2.612779846191406250e+02
1.119999980926513672e+01,2.607257690429687500e+02
1.123999977111816406e+01,2.596823730468750000e+02
1.127999973297119141e+01,2.586322631835937500e+02
1.131999969482421875e+01,2.575750122070312500e+02
1.136000061035156250e+01,2.565113525390625000e+02
1.140000057220458984e+01,2.541621704101562500e+02
1.144000053405761719e+01,2.505193023681640625e+02
1.148000049591064453e+01,2.468582000732421875e+02
1.152000045776367188e+01,2.429425354003906250e+02
1.156000041961669922e+01,2.323100433349609375e+02
1.160000038146972656e+01,2.293109283447265625e+02
1.164000034332275391e+01,2.284438323974609375e+02
1.168000030517578125e+01,2.275700073242187500e+02
1.172000026702880859e+01,2.266854553222656250e+02
1.176000022888183594e+01,2.257912597656250000e+02
1.180000019073486328e+01,2.248467407226562500e+02
1.184000015258789062e+01,2.238560485839843750e+02
1.188000011444091797e+01,2.228641204833984375e+02
1.192000007629394531e+01,2.218626556396484375e+02
1.196000003814697266e+01,2.208529357910156250e+02
1.200000000000000000e+01,2.196936187744140625e+02
1.203999996185302734e+01,2.183853149414062500e+02
1.207999992370605469e+01,2.174398193359375000e+02
1.211999988555908203e+01,2.175570373535156250e+02
1.215999984741210938e+01,2.176734466552734375e+02
1.219999980926513672e+01,2.177397918701171875e+02
1.223999977111816406e+01,2.177556457519531250e+02
1.227999973297119141e+01,2.177704010009765625e+02
1.231999969482421875e+01,2.177839508056640625e+02
1.236000061035156250e+01,2.177964782714843750e+02
1.240000057220458984e+01,2.177100067138671875e+02
1.244000053405761719e+01,2.175251617431640625e+02
1.248000049591064453e+01,2.173391113281250000e+02
1.252000045776367188e+01,2.171523132324218750e+02
1.256000041961669922e+01,2.169647674560546875e+02
1.260000038146972656e+01,2.167153167724609375e+02
1.264000034332275391e+01,2.164040222167968750e+02
1.268000030517578125e+01,2.160921020507812500e+02
1.272000026702880859e+01,2.157788238525390625e+02
1.276000022888183594e+01,2.154646606445312500e+02
1.280000019073486328e+01,2.151107177734375000e+02
1.284000015258789062e+01,2.147168884277343750e+02
1.288000011444091797e+01,2.143230895996093750e+02
1.292000007629394531e+01,2.139286804199218750e+02
1.296000003814697266e+01,2.135335540771484375e+02
1.300000000000000000e+01,2.129336395263671875e+02
1.303999996185302734e+01,2.121292877197265625e+02
1.307999992370605469e+01,2.113251342773437500e+02
1.311999988555908203e+01,2.105130004882812500e+02
1.315999984741210938e+01,2.096983032226562500e+02
1.319999980926513672e+01,2.087688598632812500e+02
1.323999977111816406e+01,2.077257690429687500e+02
1.327999973297119141e+01,2.063901062011718750e+02
1.331999969482421875e+01,2.031554870605468750e+02
1.335999965667724609e+01,2.018588562011718750e+02
1.340000057220458984e+01,2.009402008056640625e+02
1.344000053405761719e+01,2.003363952636718750e+02
1.348000049591064453e+01,1.997322540283203125e+02
1.352000045776367188e+01,1.991276550292968750e+02
1.356000041961669922e+01,1.985229949951171875e+02
1.360000038146972656e+01,1.978672485351562500e+02
1.364000034332275391e+01,1.971608734130859375e+02
1.368000030517578125e+01,1.964538879394531250e+02
1.372000026702880859e+01,1.957470245361328125e+02
1.376000022888183594e+01,1.950399780273437500e+02
1.380000019073486328e+01,1.942725982666015625e+02
1.384000015258789062e+01,1.927687835693359375e+02
1.388000011444091797e+01,1.919366302490234375e+02
1.392000007629394531e+01,1.914443664550781250e+02
1.396000003814697266e+01,1.909533081054687500e+02
1.400000000000000000e+01,1.905102844238281250e+02
1.403999996185302734e+01,1.901153869628906250e+02
1.407999992370605469e+01,1.897201995849609375e+02
1.411999988555908203e+01,1.893243255615234375e+02
1.415999984741210938e+01,1.889281005859375000e+02
1.419999980926513672e+01,1.885306091308593750e+02
1.423999977111816406e+01,1.881317443847656250e+02
1.427999973297119141e+01,1.877325592041015625e+02
1.431999969482421875e+01,1.873332824707031250e+02
1.435999965667724609e+01,1.869338378906250000e+02
1.439999961853027344e+01,1.865125885009765625e+02
1.444000053405761719e+01,1.860637817382812500e+02
1.448000049591064453e+01,1.856152038574218750e+02
1.452000045776367188e+01,1.851666870117187500e+02
1.456000041961669922e+01,1.847180633544921875e+02
1.460000038146972656e+01,1.842624816894531250e+02
1.464000034332275391e+01,1.837998962402343750e+02
1.468000030517578125e+01,1.833373565673828125e+02
1.472000026702880859e+01,1.828748626708984375e+02
1.476000022888183594e+01,1.824123992919921875e+02
1.480000019073486328e+01,1.819464569091796875e+02
1.484000015258789062e+01,1.814769439697265625e+02
1.488000011444091797e+01,1.810071105957031250e+02
1.492000007629394531e+01,1.805372161865234375e+02
1.496000003814697266e+01,1.800673522949218750e+02
1.500000000000000000e+01,1.795948944091796875e+02
1.503999996185302734e+01,1.791197052001953125e+02
1.507999992370605469e+01,1.786445159912109375e+02
1.511999988555908203e+01,1.781692199707031250e+02
1.515999984741210938e+01,1.776940307617187500e+02
1.519999980926513672e+01,1.772148132324218750e+02
1.523999977111816406e+01,1.767314910888671875e+02
1.527999973297119141e+01,1.762481689453125000e+02
1.531999969482421875e+01,1.757649230957031250e+02
1.535999965667724609e+01,1.752815856933593750e+02
1.539999961853027344e+01,1.747993774414062500e+02
1.544000053405761719e+01,1.743182067871093750e+02
1.548000049591064453e+01,1.738370056152343750e+02
1.552000045776367188e+01,1.733560791015625000e+02
1.556000041961669922e+01,1.728750152587890625e+02
1.560000038146972656e+01,1.724035034179687500e+02
1.564000034332275391e+01,1.719413909912109375e+02
1.568000030517578125e+01,1.714790802001953125e+02
1.572000026702880859e+01,1.711050567626953125e+02
1.576000022888183594e+01,1.707317810058593750e+02
1.580000019073486328e+01,1.703504333496093750e+02
1.584000015258789062e+01,1.699609069824218750e+02
1.588000011444091797e+01,1.695674743652343750e+02
1.592000007629394531e+01,1.691733703613281250e+02
1.596000003814697266e+01,1.687788391113281250e+02
1.600000000000000000e+01,1.683861541748046875e+02
1.603999900817871094e+01,1.679954071044921875e+02
1.607999992370605469e+01,1.676041107177734375e+02
1.611999893188476562e+01,1.672123413085937500e+02
1.615999984741210938e+01,1.668200073242187500e+02
1.619999885559082031e+01,1.664272155761718750e+02
1.623999977111816406e+01,1.660338134765625000e+02
1.627999877929687500e+01,1.656399841308593750e+02
1.631999969482421875e+01,1.652456054687500000e+02
1.635999870300292969e+01,1.648507690429687500e+02
1.639999961853027344e+01,1.644554138183593750e+02
1.643999862670898438e+01,1.640596466064453125e+02
1.647999954223632812e+01,1.636633148193359375e+02
1.652000045776367188e+01,1.632733001708984375e+02
1.655999946594238281e+01,1.628828887939453125e+02
1.660000038146972656e+01,1.624919891357421875e+02
1.663999938964843750e+01,1.621006622314453125e+02
1.668000030517578125e+01,1.617088928222656250e+02
1.671999931335449219e+01,1.613194122314453125e+02
1.676000022888183594e+01,1.609294128417968750e+02
1.679999923706054688e+01,1.605389251708984375e+02
1.684000015258789062e+01,1.601480255126953125e+02
1.687999916076660156e+01,1.597566223144531250e+02
1.692000007629394531e+01,1.593594818115234375e+02
1.695999908447265625e+01,1.589619598388671875e+02
1.700000000000000000e+01,1.585753784179687500e+02
1.703999900817871094e+01,1.581996765136718750e+02
1.707999992370605469e+01,1.578236389160156250e+02
1.711999893188476562e+01,1.574527282714843750e+02
1.715999984741210938e+01,1.570814208984375000e+02
1.719999885559082031e+01,1.567099609375000000e+02
1.723999977111816406e+01,1.563382263183593750e+02
1.727999877929687500e+01,1.559595336914062500e+02
1.731999969482421875e+01,1.555760345458984375e+02
1.735999870300292969e+01,1.551924133300781250e+02
1.739999961853027344e+01,1.548085479736328125e+02
1.743999862670898438e+01,1.544238281250000000e+02
1.747999954223632812e+01,1.540371551513671875e+02
