# Start of Energy Bin (keV), Effective Area (cm^2)
1.600000023841857910e+00,9.610634446144104004e-01
1.639999985694885254e+00,1.316619634628295898e+00
1.680000066757202148e+00,1.798985719680786133e+00
1.720000028610229492e+00,2.451963901519775391e+00
1.759999990463256836e+00,3.285360574722290039e+00
1.799999952316284180e+00,4.101897239685058594e+00
1.840000033378601074e+00,2.255070686340332031e+00
1.879999995231628418e+00,2.852093935012817383e+00
1.920000076293945312e+00,3.690065860748291016e+00
1.960000038146972656e+00,4.616776466369628906e+00
2.000000000000000000e+00,5.672544002532958984e+00
2.039999961853027344e+00,6.909636974334716797e+00
2.079999923706054688e+00,8.408308982849121094e+00
2.119999885559082031e+00,7.537786006927490234e+00
2.160000085830688477e+00,8.712305068969726562e+00
2.200000047683715820e+00,9.015207290649414062e+00
2.240000009536743164e+00,1.027686882019042969e+01
2.279999971389770508e+00,1.175080490112304688e+01
2.319999933242797852e+00,1.356260299682617188e+01
2.360000133514404297e+00,1.530898857116699219e+01
2.400000095367431641e+00,1.697216987609863281e+01
2.440000057220458984e+00,1.885608673095703125e+01
2.480000019073486328e+00,2.106127357482910156e+01
2.519999980926513672e+00,2.372551345825195312e+01
2.559999942779541016e+00,2.664856719970703125e+01
2.599999904632568359e+00,2.928339004516601562e+01
2.639999866485595703e+00,2.971290206909179688e+01
2.679999828338623047e+00,3.233665466308593750e+01
2.720000028610229492e+00,3.516356277465820312e+01
2.759999990463256836e+00,3.822007751464843750e+01
2.799999952316284180e+00,4.150957870483398438e+01
2.840000152587890625e+00,4.490358734130859375e+01
2.880000114440917969e+00,4.781468200683593750e+01
2.920000076293945312e+00,5.085218048095703125e+01
2.960000038146972656e+00,5.406919479370117188e+01
3.000000000000000000e+00,5.757005691528320312e+01
3.039999961853027344e+00,5.956394577026367188e+01
3.079999923706054688e+00,6.314947891235351562e+01
3.119999885559082031e+00,6.687485504150390625e+01
3.159999847412109375e+00,6.997402954101562500e+01
3.199999809265136719e+00,7.317801666259765625e+01
3.240000009536743164e+00,7.649160766601562500e+01
3.279999971389770508e+00,7.881955718994140625e+01
3.319999933242797852e+00,8.303066253662109375e+01
3.360000133514404297e+00,8.743788146972656250e+01
3.400000095367431641e+00,9.203369140625000000e+01
3.440000057220458984e+00,9.559703063964843750e+01
3.480000019073486328e+00,9.818097686767578125e+01
3.519999980926513672e+00,9.759677124023437500e+01
3.559999942779541016e+00,1.002041549682617188e+02
3.599999904632568359e+00,1.028743972778320312e+02
3.639999866485595703e+00,1.055749588012695312e+02
3.679999828338623047e+00,1.083133544921875000e+02
3.719999790191650391e+00,1.093934402465820312e+02
3.759999752044677734e+00,1.122147827148437500e+02
3.800000190734863281e+00,1.146704406738281250e+02
3.840000152587890625e+00,1.168567886352539062e+02
3.880000114440917969e+00,1.190497207641601562e+02
3.920000076293945312e+00,1.218540954589843750e+02
3.960000038146972656e+00,1.248925857543945312e+02
4.000000000000000000e+00,1.270135269165039062e+02
4.039999961853027344e+00,1.299905853271484375e+02
4.079999923706054688e+00,1.330065002441406250e+02
4.119999885559082031e+00,1.360405883789062500e+02
4.159999847412109375e+00,1.390753479003906250e+02
4.199999809265136719e+00,1.416540222167968750e+02
4.239999771118164062e+00,1.442478332519531250e+02
4.279999732971191406e+00,1.468629608154296875e+02
4.320000171661376953e+00,1.463706207275390625e+02
4.360000133514404297e+00,1.477158050537109375e+02
4.400000095367431641e+00,1.499481048583984375e+02
4.440000057220458984e+00,1.521909942626953125e+02
4.480000019073486328e+00,1.544523010253906250e+02
4.519999980926513672e+00,1.567257690429687500e+02
4.559999942779541016e+00,1.590028228759765625e+02
4.599999904632568359e+00,1.587775878906250000e+02
4.639999866485595703e+00,1.607090759277343750e+02
4.679999828338623047e+00,1.625308074951171875e+02
4.719999790191650391e+00,1.643548126220703125e+02
4.759999752044677734e+00,1.661806030273437500e+02
4.799999713897705078e+00,1.680044403076171875e+02
4.840000152587890625e+00,1.698212585449218750e+02
4.880000114440917969e+00,1.716360626220703125e+02
4.920000076293945312e+00,1.723642883300781250e+02
4.960000038146972656e+00,1.741797027587890625e+02
5.000000000000000000e+00,1.759508514404296875e+02
5.039999961853027344e+00,1.778239440917968750e+02
5.079999923706054688e+00,1.795636596679687500e+02
5.119999885559082031e+00,1.813012695312500000e+02
5.159999847412109375e+00,1.830362243652343750e+02
5.199999809265136719e+00,1.847655487060546875e+02
5.239999771118164062e+00,1.864907684326171875e+02
5.279999732971191406e+00,1.882163543701171875e+02
5.320000171661376953e+00,1.899432525634765625e+02
5.360000133514404297e+00,1.916708374023437500e+02
5.400000095367431641e+00,1.933956146240234375e+02
5.440000057220458984e+00,1.951161041259765625e+02
5.480000019073486328e+00,1.968367462158203125e+02
5.519999980926513672e+00,1.985586700439453125e+02
5.559999942779541016e+00,2.001433715820312500e+02
5.599999904632568359e+00,2.015837707519531250e+02
5.639999866485595703e+00,2.030201568603515625e+02
5.679999828338623047e+00,2.044539337158203125e+02
5.719999790191650391e+00,2.058838500976562500e+02
5.759999752044677734e+00,2.073109436035156250e+02
5.799999713897705078e+00,2.087180633544921875e+02
5.839999675750732422e+00,2.101062927246093750e+02
5.879999637603759766e+00,2.114920196533203125e+02
5.919999599456787109e+00,2.128764038085937500e+02
5.960000038146972656e+00,2.142581787109375000e+02
6.000000000000000000e+00,2.155208129882812500e+02
6.039999961853027344e+00,2.166618347167968750e+02
6.079999923706054688e+00,2.177982788085937500e+02
6.119999885559082031e+00,2.188254241943359375e+02
6.159999847412109375e+00,2.197771453857421875e+02
6.199999809265136719e+00,2.207319793701171875e+02
6.239999771118164062e+00,2.216898498535156250e+02
6.279999732971191406e+00,2.226428375244140625e+02
6.319999694824218750e+00,2.235912017822265625e+02
6.359999656677246094e+00,2.245346069335937500e+02
6.399999618530273438e+00,2.254681854248046875e+02
6.439999580383300781e+00,2.263921508789062500e+02
6.480000019073486328e+00,2.273112792968750000e+02
6.519999980926513672e+00,2.282271575927734375e+02
6.559999942779541016e+00,2.291385192871093750e+02
6.599999904632568359e+00,2.300409240722656250e+02
6.639999866485595703e+00,2.309342346191406250e+02
6.679999828338623047e+00,2.318236389160156250e+02
6.719999790191650391e+00,2.326780700683593750e+02
6.759999752044677734e+00,2.334288787841796875e+02
6.799999713897705078e+00,2.341653442382812500e+02
6.839999675750732422e+00,2.348877563476562500e+02
6.879999637603759766e+00,2.356061248779296875e+02
6.919999599456787109e+00,2.362831268310546875e+02
6.959999561309814453e+00,2.369558258056640625e+02
7.000000000000000000e+00,2.375954132080078125e+02
7.039999961853027344e+00,2.382015075683593750e+02
7.079999923706054688e+00,2.388046722412109375e+02
7.119999885559082031e+00,2.381602935791015625e+02
7.159999847412109375e+00,2.387679901123046875e+02
7.199999809265136719e+00,2.393815917968750000e+02
7.239999771118164062e+00,2.400014038085937500e+02
7.279999732971191406e+00,2.406176910400390625e+02
7.319999694824218750e+00,2.412235107421875000e+02
7.359999656677246094e+00,2.418255767822265625e+02
7.399999618530273438e+00,2.424138488769531250e+02
7.439999580383300781e+00,2.429879608154296875e+02
7.479999542236328125e+00,2.435591888427734375e+02
7.519999980926513672e+00,2.441486816406250000e+02
7.559999942779541016e+00,2.447350311279296875e+02
7.599999904632568359e+00,2.453082733154296875e+02
7.639999866485595703e+00,2.458682861328125000e+02
7.679999828338623047e+00,2.464252014160156250e+02
7.719999790191650391e+00,2.469634246826171875e+02
7.759999752044677734e+00,2.474990844726562500e+02
7.799999713897705078e+00,2.480206451416015625e+02
7.839999675750732422e+00,2.485277404785156250e+02
7.879999637603759766e+00,2.490322570800781250e+02
7.919999599456787109e+00,2.495318756103515625e+02
7.959999561309814453e+00,2.500286254882812500e+02
7.999999523162841797e+00,2.504640808105468750e+02
8.039999961853027344e+00,2.508377227783203125e+02
8.079999923706054688e+00,2.512086029052734375e+02
8.119999885559082031e+00,2.515877685546875000e+02
8.159999847412109375e+00,2.518960418701171875e+02
8.199999809265136719e+00,2.521764678955078125e+02
8.239999771118164062e+00,2.524582672119140625e+02
8.279999732971191406e+00,2.528251342773437500e+02
8.319999694824218750e+00,2.531806793212890625e+02
8.359999656677246094e+00,2.535337829589843750e+02
8.399999618530273438e+00,2.538469390869140625e+02
8.439999580383300781e+00,2.541203460693359375e+02
8.479999542236328125e+00,2.543908538818359375e+02
8.520000457763671875e+00,2.546572418212890625e+02
8.560000419616699219e+00,2.549209747314453125e+02
8.600000381469726562e+00,2.551329956054687500e+02
8.640000343322753906e+00,2.552929382324218750e+02
8.680000305175781250e+00,2.554500122070312500e+02
8.720000267028808594e+00,2.556069030761718750e+02
8.760000228881835938e+00,2.557613372802734375e+02
8.800000190734863281e+00,2.558610229492187500e+02
8.840000152587890625e+00,2.559057312011718750e+02
8.880000114440917969e+00,2.559477691650390625e+02
8.920000076293945312e+00,2.559879150390625000e+02
8.960000038146972656e+00,2.559880065917968750e+02
9.000000000000000000e+00,2.559158477783203125e+02
9.039999961853027344e+00,2.557917480468750000e+02
9.079999923706054688e+00,2.556647033691406250e+02
9.119999885559082031e+00,2.555759277343750000e+02
9.159999847412109375e+00,2.555882263183593750e+02
9.199999809265136719e+00,2.555503234863281250e+02
9.239999771118164062e+00,2.554621734619140625e+02
9.279999732971191406e+00,2.553706054687500000e+02
9.319999694824218750e+00,2.552573242187500000e+02
9.359999656677246094e+00,2.551406555175781250e+02
9.399999618530273438e+00,2.549672546386718750e+02
9.439999580383300781e+00,2.547372741699218750e+02
9.479999542236328125e+00,2.545040283203125000e+02
9.519999504089355469e+00,2.543021697998046875e+02
9.560000419616699219e+00,2.540971984863281250e+02
9.600000381469726562e+00,2.537518920898437500e+02
9.640000343322753906e+00,2.532961273193359375e+02
9.680000305175781250e+00,2.529269256591796875e+02
9.720000267028808594e+00,2.525241851806640625e+02
9.760000228881835938e+00,2.521180725097656250e+02
9.800000190734863281e+00,2.513275756835937500e+02
9.840000152587890625e+00,2.501450805664062500e+02
9.880000114440917969e+00,2.489358520507812500e+02
9.920000076293945312e+00,2.477484893798828125e+02
9.960000038146972656e+00,2.468679046630859375e+02
1.000000000000000000e+01,2.434999237060546875e+02
1.003999996185302734e+01,2.374313507080078125e+02
1.007999992370605469e+01,2.313672790527343750e+02
1.011999988555908203e+01,2.253137512207031250e+02
1.015999984741210938e+01,2.192662353515625000e+02
1.019999980926513672e+01,2.126479034423828125e+02
1.023999977111816406e+01,2.127997283935546875e+02
1.027999973297119141e+01,2.129446716308593750e+02
1.032000064849853516e+01,2.130774230957031250e+02
1.036000061035156250e+01,2.132036743164062500e+02
1.040000057220458984e+01,2.141369934082031250e+02
1.044000053405761719e+01,2.155718688964843750e+02
1.048000049591064453e+01,2.160572204589843750e+02
1.052000045776367188e+01,2.165144042968750000e+02
1.056000041961669922e+01,2.169670867919921875e+02
1.060000038146972656e+01,2.168772888183593750e+02
1.064000034332275391e+01,2.162476806640625000e+02
1.068000030517578125e+01,2.156172180175781250e+02
1.072000026702880859e+01,2.149876098632812500e+02
1.076000022888183594e+01,2.143571472167968750e+02
1.080000019073486328e+01,2.136228332519531250e+02
1.084000015258789062e+01,2.127702636718750000e+02
1.088000011444091797e+01,2.119110412597656250e+02
1.092000007629394531e+01,2.110772857666015625e+02
1.096000003814697266e+01,2.102437896728515625e+02
1.100000000000000000e+01,2.093128509521484375e+02
1.103999996185302734e+01,2.082850799560546875e+02
1.107999992370605469e+01,2.072588195800781250e+02
1.111999988555908203e+01,2.070363159179687500e+02
1.115999984741210938e+01,2.068121337890625000e+02
1.119999980926513672e+01,2.061275939941406250e+02
1.123999977111816406e+01,2.049821777343750000e+02
1.127999973297119141e+01,2.038346862792968750e+02
1.131999969482421875e+01,2.026994323730468750e+02
1.136000061035156250e+01,2.015623168945312500e+02
1.140000057220458984e+01,1.994299621582031250e+02
1.144000053405761719e+01,1.963001251220703125e+02
1.148000049591064453e+01,1.931645202636718750e+02
1.152000045776367188e+01,1.898477325439453125e+02
1.156000041961669922e+01,1.813117065429687500e+02
1.160000038146972656e+01,1.788803100585937500e+02
1.164000034332275391e+01,1.781517944335937500e+02
1.168000030517578125e+01,1.774185791015625000e+02
1.172000026702880859e+01,1.766750335693359375e+02
1.176000022888183594e+01,1.759246215820312500e+02
1.180000019073486328e+01,1.750922851562500000e+02
1.184000015258789062e+01,1.741819915771484375e+02
1.188000011444091797e+01,1.732719726562500000e+02
1.192000007629394531e+01,1.723677825927734375e+02
1.196000003814697266e+01,1.714584960937500000e+02
1.200000000000000000e+01,1.704207916259765625e+02
1.203999996185302734e+01,1.692557983398437500e+02
1.207999992370605469e+01,1.684311828613281250e+02
1.211999988555908203e+01,1.685842437744140625e+02
1.215999984741210938e+01,1.687363586425781250e+02
1.219999980926513672e+01,1.688225402832031250e+02
1.223999977111816406e+01,1.688424835205078125e+02
1.227999973297119141e+01,1.688615417480468750e+02
1.231999969482421875e+01,1.688871154785156250e+02
1.236000061035156250e+01,1.689118499755859375e+02
1.240000057220458984e+01,1.688343811035156250e+02
1.244000053405761719e+01,1.686551513671875000e+02
1.248000049591064453e+01,1.684750518798828125e+02
1.252000045776367188e+01,1.682870941162109375e+02
1.256000041961669922e+01,1.680986633300781250e+02
1.260000038146972656e+01,1.678502197265625000e+02
1.264000034332275391e+01,1.675417633056640625e+02
1.268000030517578125e+01,1.672331848144531250e+02
1.272000026702880859e+01,1.669346618652343750e+02
1.276000022888183594e+01,1.666357269287109375e+02
1.280000019073486328e+01,1.662970428466796875e+02
1.284000015258789062e+01,1.659185791015625000e+02
1.288000011444091797e+01,1.655404510498046875e+02
1.292000007629394531e+01,1.651524047851562500e+02
1.296000003814697266e+01,1.647640991210937500e+02
1.300000000000000000e+01,1.642054443359375000e+02
1.303999996185302734e+01,1.634770507812500000e+02
1.307999992370605469e+01,1.627496490478515625e+02
1.311999988555908203e+01,1.620145721435546875e+02
1.315999984741210938e+01,1.612783660888671875e+02
1.319999980926513672e+01,1.604443206787109375e+02
1.323999977111816406e+01,1.595136871337890625e+02
1.327999973297119141e+01,1.585058593750000000e+02
1.331999969482421875e+01,1.560046997070312500e+02
1.335999965667724609e+01,1.550625610351562500e+02
1.340000057220458984e+01,1.543917388916015625e+02
1.344000053405761719e+01,1.539308929443359375e+02
1.348000049591064453e+01,1.534697113037109375e+02
1.352000045776367188e+01,1.530322723388671875e+02
1.356000041961669922e+01,1.525946807861328125e+02
1.360000038146972656e+01,1.521047821044921875e+02
1.364000034332275391e+01,1.515628967285156250e+02
1.368000030517578125e+01,1.510205078125000000e+02
1.372000026702880859e+01,1.504664459228515625e+02
1.376000022888183594e+01,1.499122467041015625e+02
1.380000019073486328e+01,1.493159942626953125e+02
1.384000015258789062e+01,1.481461639404296875e+02
1.388000011444091797e+01,1.475219421386718750e+02
1.392000007629394531e+01,1.471742401123046875e+02
1.396000003814697266e+01,1.468274383544921875e+02
1.400000000000000000e+01,1.465122680664062500e+02
1.403999996185302734e+01,1.462289276123046875e+02
1.407999992370605469e+01,1.459452819824218750e+02
1.411999988555908203e+01,1.456592559814453125e+02
1.415999984741210938e+01,1.453728485107421875e+02
1.419999980926513672e+01,1.450835113525390625e+02
1.423999977111816406e+01,1.447910766601562500e+02
1.427999973297119141e+01,1.444982604980468750e+02
1.431999969482421875e+01,1.442042694091796875e+02
1.435999965667724609e+01,1.439100341796875000e+02
1.439999961853027344e+01,1.436002349853515625e+02
1.444000053405761719e+01,1.432703857421875000e+02
1.448000049591064453e+01,1.429406280517578125e+02
1.452000045776367188e+01,1.426119842529296875e+02
1.456000041961669922e+01,1.422831726074218750e+02
1.460000038146972656e+01,1.419512481689453125e+02
1.464000034332275391e+01,1.416162719726562500e+02
1.468000030517578125e+01,1.412812500000000000e+02
1.472000026702880859e+01,1.409573974609375000e+02
1.476000022888183594e+01,1.406334381103515625e+02
1.480000019073486328e+01,1.403073883056640625e+02
1.484000015258789062e+01,1.399792327880859375e+02
1.488000011444091797e+01,1.396506958007812500e+02
1.492000007629394531e+01,1.393018798828125000e+02
1.496000003814697266e+01,1.389530639648437500e+02
1.500000000000000000e+01,1.386042785644531250e+02
1.503999996185302734e+01,1.382554779052734375e+02
1.507999992370605469e+01,1.379065704345703125e+02
1.511999988555908203e+01,1.375663757324218750e+02
1.515999984741210938e+01,1.372262115478515625e+02
1.519999980926513672e+01,1.368821105957031250e+02
1.523999977111816406e+01,1.365340118408203125e+02
1.527999973297119141e+01,1.361858215332031250e+02
1.531999969482421875e+01,1.358377532958984375e+02
1.535999965667724609e+01,1.354894714355468750e+02
1.539999961853027344e+01,1.351420288085937500e+02
1.544000053405761719e+01,1.347952880859375000e+02
1.548000049591064453e+01,1.344484100341796875e+02
1.552000045776367188e+01,1.341036987304687500e+02
1.556000041961669922e+01,1.337588195800781250e+02
1.560000038146972656e+01,1.334220886230468750e+02
1.564000034332275391e+01,1.330933532714843750e+02
1.568000030517578125e+01,1.327642974853515625e+02
1.572000026702880859e+01,1.324726562500000000e+02
1.576000022888183594e+01,1.321809539794921875e+02
1.580000019073486328e+01,1.318821105957031250e+02
1.584000015258789062e+01,1.315759582519531250e+02
1.588000011444091797e+01,1.312667846679687500e+02
1.592000007629394531e+01,1.309493255615234375e+02
1.596000003814697266e+01,1.306316833496093750e+02
1.600000000000000000e+01,1.303142089843750000e+02
1.603999900817871094e+01,1.299971313476562500e+02
1.607999992370605469e+01,1.296796417236328125e+02
1.611999893188476562e+01,1.293621520996093750e+02
1.615999984741210938e+01,1.290442199707031250e+02
1.619999885559082031e+01,1.287260742187500000e+02
1.623999977111816406e+01,1.284075164794921875e+02
1.627999877929687500e+01,1.280887451171875000e+02
1.631999969482421875e+01,1.277677078247070312e+02
1.635999870300292969e+01,1.274464263916015625e+02
1.639999961853027344e+01,1.271248168945312500e+02
1.643999862670898438e+01,1.268029708862304688e+02
1.647999954223632812e+01,1.264808349609375000e+02
1.652000045776367188e+01,1.261669845581054688e+02
1.655999946594238281e+01,1.258529129028320312e+02
1.660000038146972656e+01,1.255384826660156250e+02
1.663999938964843750e+01,1.252238159179687500e+02
1.668000030517578125e+01,1.249088973999023438e+02
1.671999931335449219e+01,1.245860290527343750e+02
1.676000022888183594e+01,1.242628250122070312e+02
1.679999923706054688e+01,1.239393615722656250e+02
1.684000015258789062e+01,1.236157684326171875e+02
1.687999916076660156e+01,1.232918014526367188e+02
1.692000007629394531e+01,1.229907989501953125e+02
1.695999908447265625e+01,1.226893997192382812e+02
1.700000000000000000e+01,1.223896942138671875e+02
1.703999900817871094e+01,1.220916442871093750e+02
1.707999992370605469e+01,1.217933502197265625e+02
1.711999893188476562e+01,1.214704742431640625e+02
1.715999984741210938e+01,1.211474380493164062e+02
1.719999885559082031e+01,1.208244476318359375e+02
1.723999977111816406e+01,1.205014190673828125e+02
1.727999877929687500e+01,1.201418609619140625e+02
1.731999969482421875e+01,1.197851257324218750e+02
1.735999870300292969e+01,1.194285736083984375e+02
1.739999961853027344e+01,1.190721511840820312e+02
1.743999862670898438e+01,1.187153320312500000e+02
1.747999954223632812e+01,1.183573150634765625e+02
