# Start of Energy Bin (keV), Effective Area (cm^2)
1.600000023841857910e+00,7.677325010299682617e-01
1.639999985694885254e+00,1.064157485961914062e+00
1.680000066757202148e+00,1.469890356063842773e+00
1.720000028610229492e+00,2.023677110671997070e+00
1.759999990463256836e+00,2.737048625946044922e+00
1.799999952316284180e+00,3.448042392730712891e+00
1.840000033378601074e+00,1.911776661872863770e+00
1.879999995231628418e+00,2.435807228088378906e+00
1.920000076293945312e+00,3.171178579330444336e+00
1.960000038146972656e+00,3.990658998489379883e+00
2.000000000000000000e+00,4.929494380950927734e+00
2.039999961853027344e+00,6.033928871154785156e+00
2.079999923706054688e+00,7.375895023345947266e+00
2.119999885559082031e+00,6.712974071502685547e+00
2.160000085830688477e+00,7.790327072143554688e+00
2.200000047683715820e+00,8.123492240905761719e+00
2.240000009536743164e+00,9.297464370727539062e+00
2.279999971389770508e+00,1.067095470428466797e+01
2.319999933242797852e+00,1.235825920104980469e+01
2.360000133514404297e+00,1.399502277374267578e+01
2.400000095367431641e+00,1.556312179565429688e+01
2.440000057220458984e+00,1.733873939514160156e+01
2.480000019073486328e+00,1.941344261169433594e+01
2.519999980926513672e+00,2.191212081909179688e+01
2.559999942779541016e+00,2.465753746032714844e+01
2.599999904632568359e+00,2.714369964599609375e+01
2.639999866485595703e+00,2.765753746032714844e+01
2.679999828338623047e+00,3.014757347106933594e+01
2.720000028610229492e+00,3.282956695556640625e+01
2.759999990463256836e+00,3.573050308227539062e+01
2.799999952316284180e+00,3.885482025146484375e+01
2.840000152587890625e+00,4.208203506469726562e+01
2.880000114440917969e+00,4.486055755615234375e+01
2.920000076293945312e+00,4.777138137817382812e+01
2.960000038146972656e+00,5.085489654541015625e+01
3.000000000000000000e+00,5.422213745117187500e+01
3.039999961853027344e+00,5.624682617187500000e+01
3.079999923706054688e+00,5.973178863525390625e+01
3.119999885559082031e+00,6.335065078735351562e+01
3.159999847412109375e+00,6.638321685791015625e+01
3.199999809265136719e+00,6.952110290527343750e+01
3.240000009536743164e+00,7.276927185058593750e+01
3.279999971389770508e+00,7.512203216552734375e+01
3.319999933242797852e+00,7.906672668457031250e+01
3.360000133514404297e+00,8.318880462646484375e+01
3.400000095367431641e+00,8.748255157470703125e+01
3.440000057220458984e+00,9.090099334716796875e+01
3.480000019073486328e+00,9.342684936523437500e+01
3.519999980926513672e+00,9.069340515136718750e+01
3.559999942779541016e+00,9.321680450439453125e+01
3.599999904632568359e+00,9.582933044433593750e+01
3.639999866485595703e+00,9.847842407226562500e+01
3.679999828338623047e+00,1.011685409545898438e+02
3.719999790191650391e+00,1.011146545410156250e+02
3.759999752044677734e+00,1.038881683349609375e+02
3.800000190734863281e+00,1.063166351318359375e+02
3.840000152587890625e+00,1.085032119750976562e+02
3.880000114440917969e+00,1.106976013183593750e+02
3.920000076293945312e+00,1.134280319213867188e+02
3.960000038146972656e+00,1.163674163818359375e+02
4.000000000000000000e+00,1.178212432861328125e+02
4.039999961853027344e+00,1.207006759643554688e+02
4.079999923706054688e+00,1.236158523559570312e+02
4.119999885559082031e+00,1.265676193237304688e+02
4.159999847412109375e+00,1.295215301513671875e+02
4.199999809265136719e+00,1.320518493652343750e+02
4.239999771118164062e+00,1.345972747802734375e+02
4.279999732971191406e+00,1.371643829345703125e+02
4.320000171661376953e+00,1.346123352050781250e+02
4.360000133514404297e+00,1.353182830810546875e+02
4.400000095367431641e+00,1.375422973632812500e+02
4.440000057220458984e+00,1.397802124023437500e+02
4.480000019073486328e+00,1.420434265136718750e+02
4.519999980926513672e+00,1.443223571777343750e+02
4.559999942779541016e+00,1.466007385253906250e+02
4.599999904632568359e+00,1.450187835693359375e+02
4.639999866485595703e+00,1.470633697509765625e+02
4.679999828338623047e+00,1.489287872314453125e+02
4.719999790191650391e+00,1.507955474853515625e+02
4.759999752044677734e+00,1.526640014648437500e+02
4.799999713897705078e+00,1.545336456298828125e+02
4.840000152587890625e+00,1.563955993652343750e+02
4.880000114440917969e+00,1.582551269531250000e+02
4.920000076293945312e+00,1.583461914062500000e+02
4.960000038146972656e+00,1.602051849365234375e+02
5.000000000000000000e+00,1.620224914550781250e+02
5.039999961853027344e+00,1.639321441650390625e+02
5.079999923706054688e+00,1.657168273925781250e+02
5.119999885559082031e+00,1.674880981445312500e+02
5.159999847412109375e+00,1.692555236816406250e+02
5.199999809265136719e+00,1.710166473388671875e+02
5.239999771118164062e+00,1.727730560302734375e+02
5.279999732971191406e+00,1.745296020507812500e+02
5.320000171661376953e+00,1.763063201904296875e+02
5.360000133514404297e+00,1.780836334228515625e+02
5.400000095367431641e+00,1.798579711914062500e+02
5.440000057220458984e+00,1.816276550292968750e+02
5.480000019073486328e+00,1.833965454101562500e+02
5.519999980926513672e+00,1.851537322998046875e+02
5.559999942779541016e+00,1.867821044921875000e+02
5.599999904632568359e+00,1.882744140625000000e+02
5.639999866485595703e+00,1.897615966796875000e+02
5.679999828338623047e+00,1.912451934814453125e+02
5.719999790191650391e+00,1.927209472656250000e+02
5.759999752044677734e+00,1.941930541992187500e+02
5.799999713897705078e+00,1.956456756591796875e+02
5.839999675750732422e+00,1.970798645019531250e+02
5.879999637603759766e+00,1.985102386474609375e+02
5.919999599456787109e+00,1.999485473632812500e+02
5.960000038146972656e+00,2.013831634521484375e+02
6.000000000000000000e+00,2.027035980224609375e+02
6.039999961853027344e+00,2.039073333740234375e+02
6.079999923706054688e+00,2.051054840087890625e+02
6.119999885559082031e+00,2.061879119873046875e+02
6.159999847412109375e+00,2.071976013183593750e+02
6.199999809265136719e+00,2.082086181640625000e+02
6.239999771118164062e+00,2.092214813232421875e+02
6.279999732971191406e+00,2.102283630371093750e+02
6.319999694824218750e+00,2.112410888671875000e+02
6.359999656677246094e+00,2.122478790283203125e+02
6.399999618530273438e+00,2.132443389892578125e+02
6.439999580383300781e+00,2.142305908203125000e+02
6.480000019073486328e+00,2.152113342285156250e+02
6.519999980926513672e+00,2.161813507080078125e+02
6.559999942779541016e+00,2.171461029052734375e+02
6.599999904632568359e+00,2.181012878417968750e+02
6.639999866485595703e+00,2.190469512939453125e+02
6.679999828338623047e+00,2.199876861572265625e+02
6.719999790191650391e+00,2.208764953613281250e+02
6.759999752044677734e+00,2.216654052734375000e+02
6.799999713897705078e+00,2.224398345947265625e+02
6.839999675750732422e+00,2.232001495361328125e+02
6.879999637603759766e+00,2.239552917480468750e+02
6.919999599456787109e+00,2.247072143554687500e+02
6.959999561309814453e+00,2.254541320800781250e+02
7.000000000000000000e+00,2.261474151611328125e+02
7.039999961853027344e+00,2.267866058349609375e+02
7.079999923706054688e+00,2.274219512939453125e+02
7.119999885559082031e+00,2.268444519042968750e+02
7.159999847412109375e+00,2.274579162597656250e+02
7.199999809265136719e+00,2.280773925781250000e+02
7.239999771118164062e+00,2.287036285400390625e+02
7.279999732971191406e+00,2.293252563476562500e+02
7.319999694824218750e+00,2.299440612792968750e+02
7.359999656677246094e+00,2.305582580566406250e+02
7.399999618530273438e+00,2.311590118408203125e+02
7.439999580383300781e+00,2.317463684082031250e+02
7.479999542236328125e+00,2.323296203613281250e+02
7.519999980926513672e+00,2.329072113037109375e+02
7.559999942779541016e+00,2.334806671142578125e+02
7.599999904632568359e+00,2.340421447753906250e+02
7.639999866485595703e+00,2.345914154052734375e+02
7.679999828338623047e+00,2.351369018554687500e+02
7.719999790191650391e+00,2.356890258789062500e+02
7.759999752044677734e+00,2.362378997802734375e+02
7.799999713897705078e+00,2.367751312255859375e+02
7.839999675750732422e+00,2.373001708984375000e+02
7.879999637603759766e+00,2.378217163085937500e+02
7.919999599456787109e+00,2.383296661376953125e+02
7.959999561309814453e+00,2.388340454101562500e+02
7.999999523162841797e+00,2.393054351806640625e+02
8.039999961853027344e+00,2.397438049316406250e+02
8.079999923706054688e+00,2.401789550781250000e+02
8.119999885559082031e+00,2.406002502441406250e+02
8.159999847412109375e+00,2.409533386230468750e+02
8.199999809265136719e+00,2.412856597900390625e+02
8.239999771118164062e+00,2.416210174560546875e+02
8.279999732971191406e+00,2.420236511230468750e+02
8.319999694824218750e+00,2.424578552246093750e+02
8.359999656677246094e+00,2.428892211914062500e+02
8.399999618530273438e+00,2.432908325195312500e+02
8.439999580383300781e+00,2.436631469726562500e+02
8.479999542236328125e+00,2.440325317382812500e+02
8.520000457763671875e+00,2.443755798339843750e+02
8.560000419616699219e+00,2.447156829833984375e+02
8.600000381469726562e+00,2.450118103027343750e+02
8.640000343322753906e+00,2.452635498046875000e+02
8.680000305175781250e+00,2.455123138427734375e+02
8.720000267028808594e+00,2.457573852539062500e+02
8.760000228881835938e+00,2.459995269775390625e+02
8.800000190734863281e+00,2.461907348632812500e+02
8.840000152587890625e+00,2.463309020996093750e+02
8.880000114440917969e+00,2.464678649902343750e+02
8.920000076293945312e+00,2.466273345947265625e+02
8.960000038146972656e+00,2.467478942871093750e+02
9.000000000000000000e+00,2.467966918945312500e+02
9.039999961853027344e+00,2.467935638427734375e+02
9.079999923706054688e+00,2.467872009277343750e+02
9.119999885559082031e+00,2.468190460205078125e+02
9.159999847412109375e+00,2.469334411621093750e+02
9.199999809265136719e+00,2.469960632324218750e+02
9.239999771118164062e+00,2.470067138671875000e+02
9.279999732971191406e+00,2.470140075683593750e+02
9.319999694824218750e+00,2.470050659179687500e+02
9.359999656677246094e+00,2.469927368164062500e+02
9.399999618530273438e+00,2.469219665527343750e+02
9.439999580383300781e+00,2.467925720214843750e+02
9.479999542236328125e+00,2.466598205566406250e+02
9.519999504089355469e+00,2.465350494384765625e+02
9.560000419616699219e+00,2.464070739746093750e+02
9.600000381469726562e+00,2.461004638671875000e+02
9.640000343322753906e+00,2.456660308837890625e+02
9.680000305175781250e+00,2.453810272216796875e+02
9.720000267028808594e+00,2.451050872802734375e+02
9.760000228881835938e+00,2.448256683349609375e+02
9.800000190734863281e+00,2.441934814453125000e+02
9.840000152587890625e+00,2.432010040283203125e+02
9.880000114440917969e+00,2.421816711425781250e+02
9.920000076293945312e+00,2.411667022705078125e+02
9.960000038146972656e+00,2.404763336181640625e+02
1.000000000000000000e+01,2.374520416259765625e+02
1.003999996185302734e+01,2.318565368652343750e+02
1.007999992370605469e+01,2.262511749267578125e+02
1.011999988555908203e+01,2.206386260986328125e+02
1.015999984741210938e+01,2.150175170898437500e+02
1.019999980926513672e+01,2.088400573730468750e+02
1.023999977111816406e+01,2.090459747314453125e+02
1.027999973297119141e+01,2.092448425292968750e+02
1.032000064849853516e+01,2.094488525390625000e+02
1.036000061035156250e+01,2.096461944580078125e+02
1.040000057220458984e+01,2.106166076660156250e+02
1.044000053405761719e+01,2.120605468750000000e+02
1.048000049591064453e+01,2.125714416503906250e+02
1.052000045776367188e+01,2.130516357421875000e+02
1.056000041961669922e+01,2.135276794433593750e+02
1.060000038146972656e+01,2.134971923828125000e+02
1.064000034332275391e+01,2.129628143310546875e+02
1.068000030517578125e+01,2.124269409179687500e+02
1.072000026702880859e+01,2.118830871582031250e+02
1.076000022888183594e+01,2.113380432128906250e+02
1.080000019073486328e+01,2.106954956054687500e+02
1.084000015258789062e+01,2.099414062500000000e+02
1.088000011444091797e+01,2.091799011230468750e+02
1.092000007629394531e+01,2.084095001220703125e+02
1.096000003814697266e+01,2.076391296386718750e+02
1.100000000000000000e+01,2.067774963378906250e+02
1.103999996185302734e+01,2.058250122070312500e+02
1.107999992370605469e+01,2.048735656738281250e+02
1.111999988555908203e+01,2.047571411132812500e+02
1.115999984741210938e+01,2.046387329101562500e+02
1.119999980926513672e+01,2.040869140625000000e+02
1.123999977111816406e+01,2.031003723144531250e+02
1.127999973297119141e+01,2.021100463867187500e+02
1.131999969482421875e+01,2.010878448486328125e+02
1.136000061035156250e+01,2.000624084472656250e+02
1.140000057220458984e+01,1.980365600585937500e+02
1.144000053405761719e+01,1.950068969726562500e+02
1.148000049591064453e+01,1.919688720703125000e+02
1.152000045776367188e+01,1.887361602783203125e+02
1.156000041961669922e+01,1.804124145507812500e+02
1.160000038146972656e+01,1.780073394775390625e+02
1.164000034332275391e+01,1.772987213134765625e+02
1.168000030517578125e+01,1.765853424072265625e+02
1.172000026702880859e+01,1.759000549316406250e+02
1.176000022888183594e+01,1.752073974609375000e+02
1.180000019073486328e+01,1.744567260742187500e+02
1.184000015258789062e+01,1.736513671875000000e+02
1.188000011444091797e+01,1.728453826904296875e+02
1.192000007629394531e+01,1.720071411132812500e+02
1.196000003814697266e+01,1.711629791259765625e+02
1.200000000000000000e+01,1.701921386718750000e+02
1.203999996185302734e+01,1.690953063964843750e+02
1.207999992370605469e+01,1.683204498291015625e+02
1.211999988555908203e+01,1.684873352050781250e+02
1.215999984741210938e+01,1.686533203125000000e+02
1.219999980926513672e+01,1.687597503662109375e+02
1.223999977111816406e+01,1.688063507080078125e+02
1.227999973297119141e+01,1.688521423339843750e+02
1.231999969482421875e+01,1.688851623535156250e+02
1.236000061035156250e+01,1.689175109863281250e+02
1.240000057220458984e+01,1.688534545898437500e+02
1.244000053405761719e+01,1.686935424804687500e+02
1.248000049591064453e+01,1.685327606201171875e+02
1.252000045776367188e+01,1.683871154785156250e+02
1.256000041961669922e+01,1.682409362792968750e+02
1.260000038146972656e+01,1.680364379882812500e+02
1.264000034332275391e+01,1.677738952636718750e+02
1.268000030517578125e+01,1.675108337402343750e+02
1.272000026702880859e+01,1.672247619628906250e+02
1.276000022888183594e+01,1.669380950927734375e+02
1.280000019073486328e+01,1.666118774414062500e+02
1.284000015258789062e+01,1.662461395263671875e+02
1.288000011444091797e+01,1.658806152343750000e+02
1.292000007629394531e+01,1.655204467773437500e+02
1.296000003814697266e+01,1.651599426269531250e+02
1.300000000000000000e+01,1.646221160888671875e+02
1.303999996185302734e+01,1.639075927734375000e+02
1.307999992370605469e+01,1.631938476562500000e+02
1.311999988555908203e+01,1.624775695800781250e+02
1.315999984741210938e+01,1.617599334716796875e+02
1.319999980926513672e+01,1.609408111572265625e+02
1.323999977111816406e+01,1.600213317871093750e+02
1.327999973297119141e+01,1.589977722167968750e+02
1.331999969482421875e+01,1.565357666015625000e+02
1.335999965667724609e+01,1.555795135498046875e+02
1.340000057220458984e+01,1.549046020507812500e+02
1.344000053405761719e+01,1.544521484375000000e+02
1.348000049591064453e+01,1.539993743896484375e+02
1.352000045776367188e+01,1.535447998046875000e+02
1.356000041961669922e+01,1.530901184082031250e+02
1.360000038146972656e+01,1.525824432373046875e+02
1.364000034332275391e+01,1.520223083496093750e+02
1.368000030517578125e+01,1.514617614746093750e+02
1.372000026702880859e+01,1.509035797119140625e+02
1.376000022888183594e+01,1.503453369140625000e+02
1.380000019073486328e+01,1.497423248291015625e+02
1.384000015258789062e+01,1.485807189941406250e+02
1.388000011444091797e+01,1.479592895507812500e+02
1.392000007629394531e+01,1.476039428710937500e+02
1.396000003814697266e+01,1.472492980957031250e+02
1.400000000000000000e+01,1.469279174804687500e+02
1.403999996185302734e+01,1.466397094726562500e+02
1.407999992370605469e+01,1.463511657714843750e+02
1.411999988555908203e+01,1.460529479980468750e+02
1.415999984741210938e+01,1.457544555664062500e+02
1.419999980926513672e+01,1.454528350830078125e+02
1.423999977111816406e+01,1.451481018066406250e+02
1.427999973297119141e+01,1.448431243896484375e+02
1.431999969482421875e+01,1.445598602294921875e+02
1.435999965667724609e+01,1.442763519287109375e+02
1.439999961853027344e+01,1.439765930175781250e+02
1.444000053405761719e+01,1.436561584472656250e+02
1.448000049591064453e+01,1.433358001708984375e+02
1.452000045776367188e+01,1.430240631103515625e+02
1.456000041961669922e+01,1.427120666503906250e+02
1.460000038146972656e+01,1.423963012695312500e+02
1.464000034332275391e+01,1.420766754150390625e+02
1.468000030517578125e+01,1.417569122314453125e+02
1.472000026702880859e+01,1.414075775146484375e+02
1.476000022888183594e+01,1.410582275390625000e+02
1.480000019073486328e+01,1.407065734863281250e+02
1.484000015258789062e+01,1.403526000976562500e+02
1.488000011444091797e+01,1.399983062744140625e+02
1.492000007629394531e+01,1.396546783447265625e+02
1.496000003814697266e+01,1.393109588623046875e+02
1.500000000000000000e+01,1.389667053222656250e+02
1.503999996185302734e+01,1.386218109130859375e+02
1.507999992370605469e+01,1.382767944335937500e+02
1.511999988555908203e+01,1.379353790283203125e+02
1.515999984741210938e+01,1.375938720703125000e+02
1.519999980926513672e+01,1.372482757568359375e+02
1.523999977111816406e+01,1.368985290527343750e+02
1.527999973297119141e+01,1.365486602783203125e+02
1.531999969482421875e+01,1.361972351074218750e+02
1.535999965667724609e+01,1.358456878662109375e+02
1.539999961853027344e+01,1.354944458007812500e+02
1.544000053405761719e+01,1.351434936523437500e+02
1.548000049591064453e+01,1.347924499511718750e+02
1.552000045776367188e+01,1.344423675537109375e+02
1.556000041961669922e+01,1.340921020507812500e+02
1.560000038146972656e+01,1.337495117187500000e+02
1.564000034332275391e+01,1.334145507812500000e+02
1.568000030517578125e+01,1.330793914794921875e+02
1.572000026702880859e+01,1.327743835449218750e+02
1.576000022888183594e+01,1.324695434570312500e+02
1.580000019073486328e+01,1.321572570800781250e+02
1.584000015258789062e+01,1.318374176025390625e+02
1.588000011444091797e+01,1.315146484375000000e+02
1.592000007629394531e+01,1.311887817382812500e+02
1.596000003814697266e+01,1.308625793457031250e+02
1.600000000000000000e+01,1.305366058349609375e+02
1.603999900817871094e+01,1.302108612060546875e+02
1.607999992370605469e+01,1.298847961425781250e+02
1.611999893188476562e+01,1.295753936767578125e+02
1.615999984741210938e+01,1.292655792236328125e+02
1.619999885559082031e+01,1.289553985595703125e+02
1.623999977111816406e+01,1.286447906494140625e+02
1.627999877929687500e+01,1.283338623046875000e+02
1.631999969482421875e+01,1.280137176513671875e+02
1.635999870300292969e+01,1.276932830810546875e+02
1.639999961853027344e+01,1.273725433349609375e+02
1.643999862670898438e+01,1.270515289306640625e+02
1.647999954223632812e+01,1.267301330566406250e+02
1.652000045776367188e+01,1.264122772216796875e+02
1.655999946594238281e+01,1.260941848754882812e+02
1.660000038146972656e+01,1.257758331298828125e+02
1.663999938964843750e+01,1.254571838378906250e+02
1.668000030517578125e+01,1.251382446289062500e+02
1.671999931335449219e+01,1.248184661865234375e+02
1.676000022888183594e+01,1.244983825683593750e+02
1.679999923706054688e+01,1.241780242919921875e+02
1.684000015258789062e+01,1.238573913574218750e+02
1.687999916076660156e+01,1.235364837646484375e+02
1.692000007629394531e+01,1.232163391113281250e+02
1.695999908447265625e+01,1.228959655761718750e+02
1.700000000000000000e+01,1.225827102661132812e+02
1.703999900817871094e+01,1.222765274047851562e+02
1.707999992370605469e+01,1.219701766967773438e+02
1.711999893188476562e+01,1.216667556762695312e+02
1.715999984741210938e+01,1.213631057739257812e+02
1.719999885559082031e+01,1.210593948364257812e+02
1.723999977111816406e+01,1.207555084228515625e+02
1.727999877929687500e+01,1.204191665649414062e+02
1.731999969482421875e+01,1.200830307006835938e+02
1.735999870300292969e+01,1.197469940185546875e+02
1.739999961853027344e+01,1.194109191894531250e+02
1.743999862670898438e+01,1.190744018554687500e+02
1.747999954223632812e+01,1.187365570068359375e+02
