# Start of Energy Bin (keV), Effective Area (cm^2)
1.600000023841857910e+00,5.389420390129089355e-01
1.639999985694885254e+00,7.455989122390747070e-01
1.680000066757202148e+00,1.027884125709533691e+00
1.720000028610229492e+00,1.412384748458862305e+00
1.759999990463256836e+00,1.906512022018432617e+00
1.799999952316284180e+00,2.394907951354980469e+00
1.840000033378601074e+00,1.323357224464416504e+00
1.879999995231628418e+00,1.684515237808227539e+00
1.920000076293945312e+00,2.196398973464965820e+00
1.960000038146972656e+00,2.768156528472900391e+00
2.000000000000000000e+00,3.425809383392333984e+00
2.039999961853027344e+00,4.202736377716064453e+00
2.079999923706054688e+00,5.148856163024902344e+00
2.119999885559082031e+00,4.691012859344482422e+00
2.160000085830688477e+00,5.446249961853027344e+00
2.200000047683715820e+00,5.680565357208251953e+00
2.240000009536743164e+00,6.501817226409912109e+00
2.279999971389770508e+00,7.462676048278808594e+00
2.319999933242797852e+00,8.646864891052246094e+00
2.360000133514404297e+00,9.796814918518066406e+00
2.400000095367431641e+00,1.089942169189453125e+01
2.440000057220458984e+00,1.214801597595214844e+01
2.480000019073486328e+00,1.360728263854980469e+01
2.519999980926513672e+00,1.536438274383544922e+01
2.559999942779541016e+00,1.729478263854980469e+01
2.599999904632568359e+00,1.904274940490722656e+01
2.639999866485595703e+00,1.940731811523437500e+01
2.679999828338623047e+00,2.115611267089843750e+01
2.720000028610229492e+00,2.303678894042968750e+01
2.759999990463256836e+00,2.507085800170898438e+01
2.799999952316284180e+00,2.726100540161132812e+01
2.840000152587890625e+00,2.952444648742675781e+01
2.880000114440917969e+00,3.147387313842773438e+01
2.920000076293945312e+00,3.351689529418945312e+01
2.960000038146972656e+00,3.568118286132812500e+01
3.000000000000000000e+00,3.799047088623046875e+01
3.039999961853027344e+00,3.930002593994140625e+01
3.079999923706054688e+00,4.161931610107421875e+01
3.119999885559082031e+00,4.401692581176757812e+01
3.159999847412109375e+00,4.599490356445312500e+01
3.199999809265136719e+00,4.803459930419921875e+01
3.240000009536743164e+00,5.013893127441406250e+01
3.279999971389770508e+00,5.161504364013671875e+01
3.319999933242797852e+00,5.472195434570312500e+01
3.360000133514404297e+00,5.799113082885742188e+01
3.400000095367431641e+00,6.141465759277343750e+01
3.440000057220458984e+00,6.388993835449218750e+01
3.480000019073486328e+00,6.561663055419921875e+01
3.519999980926513672e+00,6.363201141357421875e+01
3.559999942779541016e+00,6.533539581298828125e+01
3.599999904632568359e+00,6.709721374511718750e+01
3.639999866485595703e+00,6.888046264648437500e+01
3.679999828338623047e+00,7.068804931640625000e+01
3.719999790191650391e+00,7.059173583984375000e+01
3.759999752044677734e+00,7.246719360351562500e+01
3.800000190734863281e+00,7.409831237792968750e+01
3.840000152587890625e+00,7.555741882324218750e+01
3.880000114440917969e+00,7.701878356933593750e+01
3.920000076293945312e+00,7.892031860351562500e+01
3.960000038146972656e+00,8.099634552001953125e+01
4.000000000000000000e+00,8.203923034667968750e+01
4.039999961853027344e+00,8.407559204101562500e+01
4.079999923706054688e+00,8.613816070556640625e+01
4.119999885559082031e+00,8.823853302001953125e+01
4.159999847412109375e+00,9.034223937988281250e+01
4.199999809265136719e+00,9.215203857421875000e+01
4.239999771118164062e+00,9.397373962402343750e+01
4.279999732971191406e+00,9.581211853027343750e+01
4.320000171661376953e+00,9.406934356689453125e+01
4.360000133514404297e+00,9.455667114257812500e+01
4.400000095367431641e+00,9.608891296386718750e+01
4.440000057220458984e+00,9.762996673583984375e+01
4.480000019073486328e+00,9.918795776367187500e+01
4.519999980926513672e+00,1.007534790039062500e+02
4.559999942779541016e+00,1.023178024291992188e+02
4.599999904632568359e+00,1.011875305175781250e+02
4.639999866485595703e+00,1.025874176025390625e+02
4.679999828338623047e+00,1.038615951538085938e+02
4.719999790191650391e+00,1.051512298583984375e+02
4.759999752044677734e+00,1.064417037963867188e+02
4.799999713897705078e+00,1.077324752807617188e+02
4.840000152587890625e+00,1.090173568725585938e+02
4.880000114440917969e+00,1.103001937866210938e+02
4.920000076293945312e+00,1.103353118896484375e+02
4.960000038146972656e+00,1.116019439697265625e+02
5.000000000000000000e+00,1.128386383056640625e+02
5.039999961853027344e+00,1.141402282714843750e+02
5.079999923706054688e+00,1.153551559448242188e+02
5.119999885559082031e+00,1.165765075683593750e+02
5.159999847412109375e+00,1.177949523925781250e+02
5.199999809265136719e+00,1.190085678100585938e+02
5.239999771118164062e+00,1.202184600830078125e+02
5.279999732971191406e+00,1.214282760620117188e+02
5.320000171661376953e+00,1.226291046142578125e+02
5.360000133514404297e+00,1.238296661376953125e+02
5.400000095367431641e+00,1.250272293090820312e+02
5.440000057220458984e+00,1.262206344604492188e+02
5.480000019073486328e+00,1.274128265380859375e+02
5.519999980926513672e+00,1.286154937744140625e+02
5.559999942779541016e+00,1.297283935546875000e+02
5.599999904632568359e+00,1.307462158203125000e+02
5.639999866485595703e+00,1.317599182128906250e+02
5.679999828338623047e+00,1.327708587646484375e+02
5.719999790191650391e+00,1.337673645019531250e+02
5.759999752044677734e+00,1.347609710693359375e+02
5.799999713897705078e+00,1.357400207519531250e+02
5.839999675750732422e+00,1.367052612304687500e+02
5.879999637603759766e+00,1.376674957275390625e+02
5.919999599456787109e+00,1.386410217285156250e+02
5.960000038146972656e+00,1.396116638183593750e+02
6.000000000000000000e+00,1.405057983398437500e+02
6.039999961853027344e+00,1.413216857910156250e+02
6.079999923706054688e+00,1.421335144042968750e+02
6.119999885559082031e+00,1.428649597167968750e+02
6.159999847412109375e+00,1.435458068847656250e+02
6.199999809265136719e+00,1.442270965576171875e+02
6.239999771118164062e+00,1.449091186523437500e+02
6.279999732971191406e+00,1.455868377685546875e+02
6.319999694824218750e+00,1.462596740722656250e+02
6.359999656677246094e+00,1.469281005859375000e+02
6.399999618530273438e+00,1.475883026123046875e+02
6.439999580383300781e+00,1.482404022216796875e+02
6.480000019073486328e+00,1.488884277343750000e+02
6.519999980926513672e+00,1.495331726074218750e+02
6.559999942779541016e+00,1.501740417480468750e+02
6.599999904632568359e+00,1.508070678710937500e+02
6.639999866485595703e+00,1.514322662353515625e+02
6.679999828338623047e+00,1.520538177490234375e+02
6.719999790191650391e+00,1.526358489990234375e+02
6.759999752044677734e+00,1.531486206054687500e+02
6.799999713897705078e+00,1.536495208740234375e+02
6.839999675750732422e+00,1.541387786865234375e+02
6.879999637603759766e+00,1.546242218017578125e+02
6.919999599456787109e+00,1.551204528808593750e+02
6.959999561309814453e+00,1.556130981445312500e+02
7.000000000000000000e+00,1.560682983398437500e+02
7.039999961853027344e+00,1.564857482910156250e+02
7.079999923706054688e+00,1.569004364013671875e+02
7.119999885559082031e+00,1.564625396728515625e+02
7.159999847412109375e+00,1.568461151123046875e+02
7.199999809265136719e+00,1.572268981933593750e+02
7.239999771118164062e+00,1.576054229736328125e+02
7.279999732971191406e+00,1.579804687500000000e+02
7.319999694824218750e+00,1.583717651367187500e+02
7.359999656677246094e+00,1.587597198486328125e+02
7.399999618530273438e+00,1.591341705322265625e+02
7.439999580383300781e+00,1.594951171875000000e+02
7.479999542236328125e+00,1.598530731201171875e+02
7.519999980926513672e+00,1.602021179199218750e+02
7.559999942779541016e+00,1.605481262207031250e+02
7.599999904632568359e+00,1.608773803710937500e+02
7.639999866485595703e+00,1.611897125244140625e+02
7.679999828338623047e+00,1.614991455078125000e+02
7.719999790191650391e+00,1.618124084472656250e+02
7.759999752044677734e+00,1.621231384277343750e+02
7.799999713897705078e+00,1.624117736816406250e+02
7.839999675750732422e+00,1.626778717041015625e+02
7.879999637603759766e+00,1.629411621093750000e+02
7.919999599456787109e+00,1.631976318359375000e+02
7.959999561309814453e+00,1.634512634277343750e+02
7.999999523162841797e+00,1.636600799560546875e+02
8.039999961853027344e+00,1.638239746093750000e+02
8.079999923706054688e+00,1.639851379394531250e+02
8.119999885559082031e+00,1.641575012207031250e+02
8.159999847412109375e+00,1.642828826904296875e+02
8.199999809265136719e+00,1.643760223388671875e+02
8.239999771118164062e+00,1.644672546386718750e+02
8.279999732971191406e+00,1.646463775634765625e+02
8.319999694824218750e+00,1.648159942626953125e+02
8.359999656677246094e+00,1.649830780029296875e+02
8.399999618530273438e+00,1.651194152832031250e+02
8.439999580383300781e+00,1.652252807617187500e+02
8.479999542236328125e+00,1.653284301757812500e+02
8.520000457763671875e+00,1.654388580322265625e+02
8.560000419616699219e+00,1.655466308593750000e+02
8.600000381469726562e+00,1.656253814697265625e+02
8.640000343322753906e+00,1.656748199462890625e+02
8.680000305175781250e+00,1.657215881347656250e+02
8.720000267028808594e+00,1.657783203125000000e+02
8.760000228881835938e+00,1.658324279785156250e+02
8.800000190734863281e+00,1.658616943359375000e+02
8.840000152587890625e+00,1.658660430908203125e+02
8.880000114440917969e+00,1.658676300048828125e+02
8.920000076293945312e+00,1.658735961914062500e+02
8.960000038146972656e+00,1.658527679443359375e+02
9.000000000000000000e+00,1.657959442138671875e+02
9.039999961853027344e+00,1.657165069580078125e+02
9.079999923706054688e+00,1.656343841552734375e+02
9.119999885559082031e+00,1.655787811279296875e+02
9.159999847412109375e+00,1.656237487792968750e+02
9.199999809265136719e+00,1.656442413330078125e+02
9.239999771118164062e+00,1.656401062011718750e+02
9.279999732971191406e+00,1.656330261230468750e+02
9.319999694824218750e+00,1.656456298828125000e+02
9.359999656677246094e+00,1.656552581787109375e+02
9.399999618530273438e+00,1.656318511962890625e+02
9.439999580383300781e+00,1.655753631591796875e+02
9.479999542236328125e+00,1.655158691406250000e+02
9.519999504089355469e+00,1.654619293212890625e+02
9.560000419616699219e+00,1.654051055908203125e+02
9.600000381469726562e+00,1.652272338867187500e+02
9.640000343322753906e+00,1.649622802734375000e+02
9.680000305175781250e+00,1.647967834472656250e+02
9.720000267028808594e+00,1.646415252685546875e+02
9.760000228881835938e+00,1.644830932617187500e+02
9.800000190734863281e+00,1.640591125488281250e+02
9.840000152587890625e+00,1.633641662597656250e+02
9.880000114440917969e+00,1.626497802734375000e+02
9.920000076293945312e+00,1.619547119140625000e+02
9.960000038146972656e+00,1.613928833007812500e+02
1.000000000000000000e+01,1.591245880126953125e+02
1.003999996185302734e+01,1.550603027343750000e+02
1.007999992370605469e+01,1.510022888183593750e+02
1.011999988555908203e+01,1.469459838867187500e+02
1.015999984741210938e+01,1.428975677490234375e+02
1.019999980926513672e+01,1.384751892089843750e+02
1.023999977111816406e+01,1.386546173095703125e+02
1.027999973297119141e+01,1.388296356201171875e+02
1.032000064849853516e+01,1.390062713623046875e+02
1.036000061035156250e+01,1.391787109375000000e+02
1.040000057220458984e+01,1.398831939697265625e+02
1.044000053405761719e+01,1.409204711914062500e+02
1.048000049591064453e+01,1.413349304199218750e+02
1.052000045776367188e+01,1.417257385253906250e+02
1.056000041961669922e+01,1.421136016845703125e+02
1.060000038146972656e+01,1.421158752441406250e+02
1.064000034332275391e+01,1.417342681884765625e+02
1.068000030517578125e+01,1.413513793945312500e+02
1.072000026702880859e+01,1.409736633300781250e+02
1.076000022888183594e+01,1.405948181152343750e+02
1.080000019073486328e+01,1.401385803222656250e+02
1.084000015258789062e+01,1.395957031250000000e+02
1.088000011444091797e+01,1.390477752685546875e+02
1.092000007629394531e+01,1.384647674560546875e+02
1.096000003814697266e+01,1.378819122314453125e+02
1.100000000000000000e+01,1.372266235351562500e+02
1.103999996185302734e+01,1.364994201660156250e+02
1.107999992370605469e+01,1.357734222412109375e+02
1.111999988555908203e+01,1.356052551269531250e+02
1.115999984741210938e+01,1.354359436035156250e+02
1.119999980926513672e+01,1.349365081787109375e+02
1.123999977111816406e+01,1.341071777343750000e+02
1.127999973297119141e+01,1.332769927978515625e+02
1.131999969482421875e+01,1.324563446044921875e+02
1.136000061035156250e+01,1.316348419189453125e+02
1.140000057220458984e+01,1.301827087402343750e+02
1.144000053405761719e+01,1.280987701416015625e+02
1.148000049591064453e+01,1.260121459960937500e+02
1.152000045776367188e+01,1.238108291625976562e+02
1.156000041961669922e+01,1.183702697753906250e+02
1.160000038146972656e+01,1.168072357177734375e+02
1.164000034332275391e+01,1.163483581542968750e+02
1.168000030517578125e+01,1.158863525390625000e+02
1.172000026702880859e+01,1.154429702758789062e+02
1.176000022888183594e+01,1.149947052001953125e+02
1.180000019073486328e+01,1.144788360595703125e+02
1.184000015258789062e+01,1.138978271484375000e+02
1.188000011444091797e+01,1.133167953491210938e+02
1.192000007629394531e+01,1.127126312255859375e+02
1.196000003814697266e+01,1.121050109863281250e+02
1.200000000000000000e+01,1.114141006469726562e+02
1.203999996185302734e+01,1.106404190063476562e+02
1.207999992370605469e+01,1.101041412353515625e+02
1.211999988555908203e+01,1.102496871948242188e+02
1.215999984741210938e+01,1.103947143554687500e+02
1.219999980926513672e+01,1.104889678955078125e+02
1.223999977111816406e+01,1.105322799682617188e+02
1.227999973297119141e+01,1.105750656127929688e+02
1.231999969482421875e+01,1.106114883422851562e+02
1.236000061035156250e+01,1.106474456787109375e+02
1.240000057220458984e+01,1.106116485595703125e+02
1.244000053405761719e+01,1.105043869018554688e+02
1.248000049591064453e+01,1.103965759277343750e+02
1.252000045776367188e+01,1.103145446777343750e+02
1.256000041961669922e+01,1.102320938110351562e+02
1.260000038146972656e+01,1.101101989746093750e+02
1.264000034332275391e+01,1.099489974975585938e+02
1.268000030517578125e+01,1.097874145507812500e+02
1.272000026702880859e+01,1.095997467041015625e+02
1.276000022888183594e+01,1.094116821289062500e+02
1.280000019073486328e+01,1.091987838745117188e+02
1.284000015258789062e+01,1.089610748291015625e+02
1.288000011444091797e+01,1.087234725952148438e+02
1.292000007629394531e+01,1.084630584716796875e+02
1.296000003814697266e+01,1.082025222778320312e+02
1.300000000000000000e+01,1.078346481323242188e+02
1.303999996185302734e+01,1.073598098754882812e+02
1.307999992370605469e+01,1.068855514526367188e+02
1.311999988555908203e+01,1.064243621826171875e+02
1.315999984741210938e+01,1.059622116088867188e+02
1.319999980926513672e+01,1.054404449462890625e+02
1.323999977111816406e+01,1.048596343994140625e+02
1.327999973297119141e+01,1.042478790283203125e+02
1.331999969482421875e+01,1.026825485229492188e+02
1.335999965667724609e+01,1.021200714111328125e+02
1.340000057220458984e+01,1.017287139892578125e+02
1.344000053405761719e+01,1.014648666381835938e+02
1.348000049591064453e+01,1.012006607055664062e+02
1.352000045776367188e+01,1.009386749267578125e+02
1.356000041961669922e+01,1.006764221191406250e+02
1.360000038146972656e+01,1.003802185058593750e+02
1.364000034332275391e+01,1.000503616333007812e+02
1.368000030517578125e+01,9.971998596191406250e+01
1.372000026702880859e+01,9.940668487548828125e+01
1.376000022888183594e+01,9.909300231933593750e+01
1.380000019073486328e+01,9.875308227539062500e+01
1.384000015258789062e+01,9.804782104492187500e+01
1.388000011444091797e+01,9.768797302246093750e+01
1.392000007629394531e+01,9.748541259765625000e+01
1.396000003814697266e+01,9.728318023681640625e+01
1.400000000000000000e+01,9.709957885742187500e+01
1.403999996185302734e+01,9.693462371826171875e+01
1.407999992370605469e+01,9.676935577392578125e+01
1.411999988555908203e+01,9.660472869873046875e+01
1.415999984741210938e+01,9.643981170654296875e+01
1.419999980926513672e+01,9.627185821533203125e+01
1.423999977111816406e+01,9.610085296630859375e+01
1.427999973297119141e+01,9.592958068847656250e+01
1.431999969482421875e+01,9.577174377441406250e+01
1.435999965667724609e+01,9.561364746093750000e+01
1.439999961853027344e+01,9.544459533691406250e+01
1.444000053405761719e+01,9.526162719726562500e+01
1.448000049591064453e+01,9.507855987548828125e+01
1.452000045776367188e+01,9.488197326660156250e+01
1.456000041961669922e+01,9.468518066406250000e+01
1.460000038146972656e+01,9.448613739013671875e+01
1.464000034332275391e+01,9.428481292724609375e+01
1.468000030517578125e+01,9.408333587646484375e+01
1.472000026702880859e+01,9.389275360107421875e+01
1.476000022888183594e+01,9.370198059082031250e+01
1.480000019073486328e+01,9.350932312011718750e+01
1.484000015258789062e+01,9.331474304199218750e+01
1.488000011444091797e+01,9.311975860595703125e+01
1.492000007629394531e+01,9.290994262695312500e+01
1.496000003814697266e+01,9.269997406005859375e+01
1.500000000000000000e+01,9.249021911621093750e+01
1.503999996185302734e+01,9.228059387207031250e+01
1.507999992370605469e+01,9.207080078125000000e+01
1.511999988555908203e+01,9.188245391845703125e+01
1.515999984741210938e+01,9.169388580322265625e+01
1.519999980926513672e+01,9.150215911865234375e+01
1.523999977111816406e+01,9.130725097656250000e+01
1.527999973297119141e+01,9.111208343505859375e+01
1.531999969482421875e+01,9.090438842773437500e+01
1.535999965667724609e+01,9.069649505615234375e+01
1.539999961853027344e+01,9.048902893066406250e+01
1.544000053405761719e+01,9.028199005126953125e+01
1.548000049591064453e+01,9.007476806640625000e+01
1.552000045776367188e+01,8.986978912353515625e+01
1.556000041961669922e+01,8.966455078125000000e+01
1.560000038146972656e+01,8.946457672119140625e+01
1.564000034332275391e+01,8.926982879638671875e+01
1.568000030517578125e+01,8.907483673095703125e+01
1.572000026702880859e+01,8.888101196289062500e+01
1.576000022888183594e+01,8.868701171875000000e+01
1.580000019073486328e+01,8.848776245117187500e+01
1.584000015258789062e+01,8.828319549560546875e+01
1.588000011444091797e+01,8.807661437988281250e+01
1.592000007629394531e+01,8.789442443847656250e+01
1.596000003814697266e+01,8.771183776855468750e+01
1.600000000000000000e+01,8.752742767333984375e+01
1.603999900817871094e+01,8.734117889404296875e+01
1.607999992370605469e+01,8.715457153320312500e+01
1.611999893188476562e+01,8.695548248291015625e+01
1.615999984741210938e+01,8.675607299804687500e+01
1.619999885559082031e+01,8.655637359619140625e+01
1.623999977111816406e+01,8.635635375976562500e+01
1.627999877929687500e+01,8.615604400634765625e+01
1.631999969482421875e+01,8.594258117675781250e+01
1.635999870300292969e+01,8.572889709472656250e+01
1.639999961853027344e+01,8.551500701904296875e+01
1.643999862670898438e+01,8.530091857910156250e+01
1.647999954223632812e+01,8.508655548095703125e+01
1.652000045776367188e+01,8.487841033935546875e+01
1.655999946594238281e+01,8.467006683349609375e+01
1.660000038146972656e+01,8.446150970458984375e+01
1.663999938964843750e+01,8.425271606445312500e+01
1.668000030517578125e+01,8.404369354248046875e+01
1.671999931335449219e+01,8.385276794433593750e+01
1.676000022888183594e+01,8.366149139404296875e+01
1.679999923706054688e+01,8.346990203857421875e+01
1.684000015258789062e+01,8.327799224853515625e+01
1.687999916076660156e+01,8.308575439453125000e+01
1.692000007629394531e+01,8.288439941406250000e+01
1.695999908447265625e+01,8.268281555175781250e+01
1.700000000000000000e+01,8.247943115234375000e+01
1.703999900817871094e+01,8.227423858642578125e+01
1.707999992370605469e+01,8.206887817382812500e+01
1.711999893188476562e+01,8.187065124511718750e+01
1.715999984741210938e+01,8.167221069335937500e+01
1.719999885559082031e+01,8.147364044189453125e+01
1.723999977111816406e+01,8.127490234375000000e+01
1.727999877929687500e+01,8.104114532470703125e+01
1.731999969482421875e+01,8.078276062011718750e+01
1.735999870300292969e+01,8.052458953857421875e+01
1.739999961853027344e+01,8.026654052734375000e+01
1.743999862670898438e+01,8.000836181640625000e+01
1.747999954223632812e+01,7.974945068359375000e+01
