# Start of Energy Bin (keV), Effective Area (cm^2)
1.600000023841857910e+00,3.955285847187042236e-01
1.639999985694885254e+00,5.467653274536132812e-01
1.680000066757202148e+00,7.531757354736328125e-01
1.720000028610229492e+00,1.034089565277099609e+00
1.759999990463256836e+00,1.394742965698242188e+00
1.799999952316284180e+00,1.750091195106506348e+00
1.840000033378601074e+00,9.658135771751403809e-01
1.879999995231628418e+00,1.228889942169189453e+00
1.920000076293945312e+00,1.603280067443847656e+00
1.960000038146972656e+00,2.021842718124389648e+00
2.000000000000000000e+00,2.503991127014160156e+00
2.039999961853027344e+00,3.074450016021728516e+00
2.079999923706054688e+00,3.769713401794433594e+00
2.119999885559082031e+00,3.436138391494750977e+00
2.160000085830688477e+00,3.990370750427246094e+00
2.200000047683715820e+00,4.162846565246582031e+00
2.240000009536743164e+00,4.765273094177246094e+00
2.279999971389770508e+00,5.470221042633056641e+00
2.319999933242797852e+00,6.339621543884277344e+00
2.360000133514404297e+00,7.184288978576660156e+00
2.400000095367431641e+00,7.994491577148437500e+00
2.440000057220458984e+00,8.912008285522460938e+00
2.480000019073486328e+00,9.984453201293945312e+00
2.519999980926513672e+00,1.127380371093750000e+01
2.559999942779541016e+00,1.269001674652099609e+01
2.599999904632568359e+00,1.397179794311523438e+01
2.639999866485595703e+00,1.423844146728515625e+01
2.679999828338623047e+00,1.551984786987304688e+01
2.720000028610229492e+00,1.690014648437500000e+01
2.759999990463256836e+00,1.839308738708496094e+01
2.799999952316284180e+00,2.000056076049804688e+01
2.840000152587890625e+00,2.166228485107421875e+01
2.880000114440917969e+00,2.309399795532226562e+01
2.920000076293945312e+00,2.459593772888183594e+01
2.960000038146972656e+00,2.618721961975097656e+01
3.000000000000000000e+00,2.785895919799804688e+01
3.039999961853027344e+00,2.876859283447265625e+01
3.079999923706054688e+00,3.041254425048828125e+01
3.119999885559082031e+00,3.209875869750976562e+01
3.159999847412109375e+00,3.347244644165039062e+01
3.199999809265136719e+00,3.488505554199218750e+01
3.240000009536743164e+00,3.633842468261718750e+01
3.279999971389770508e+00,3.733084106445312500e+01
3.319999933242797852e+00,3.977238082885742188e+01
3.360000133514404297e+00,4.235117721557617188e+01
3.400000095367431641e+00,4.505939102172851562e+01
3.440000057220458984e+00,4.690974426269531250e+01
3.480000019073486328e+00,4.815156173706054688e+01
3.519999980926513672e+00,4.667353057861328125e+01
3.559999942779541016e+00,4.790043640136718750e+01
3.599999904632568359e+00,4.916871643066406250e+01
3.639999866485595703e+00,5.045118713378906250e+01
3.679999828338623047e+00,5.174990081787109375e+01
3.719999790191650391e+00,5.163702774047851562e+01
3.759999752044677734e+00,5.296513748168945312e+01
3.800000190734863281e+00,5.411217498779296875e+01
3.840000152587890625e+00,5.513137054443359375e+01
3.880000114440917969e+00,5.615007781982421875e+01
3.920000076293945312e+00,5.755102539062500000e+01
3.960000038146972656e+00,5.909418106079101562e+01
4.000000000000000000e+00,5.988454437255859375e+01
4.039999961853027344e+00,6.140105438232421875e+01
4.079999923706054688e+00,6.293808364868164062e+01
4.119999885559082031e+00,6.448725891113281250e+01
4.159999847412109375e+00,6.603944396972656250e+01
4.199999809265136719e+00,6.737724304199218750e+01
4.239999771118164062e+00,6.872415924072265625e+01
4.279999732971191406e+00,7.008373260498046875e+01
4.320000171661376953e+00,6.883614349365234375e+01
4.360000133514404297e+00,6.919763946533203125e+01
4.400000095367431641e+00,7.031625366210937500e+01
4.440000057220458984e+00,7.144114685058593750e+01
4.480000019073486328e+00,7.257833862304687500e+01
4.519999980926513672e+00,7.370719146728515625e+01
4.559999942779541016e+00,7.483462524414062500e+01
4.599999904632568359e+00,7.399109649658203125e+01
4.639999866485595703e+00,7.499755859375000000e+01
4.679999828338623047e+00,7.591165161132812500e+01
4.719999790191650391e+00,7.684823608398437500e+01
4.759999752044677734e+00,7.778527832031250000e+01
4.799999713897705078e+00,7.872227478027343750e+01
4.840000152587890625e+00,7.965473175048828125e+01
4.880000114440917969e+00,8.058552551269531250e+01
4.920000076293945312e+00,8.059683990478515625e+01
4.960000038146972656e+00,8.150755310058593750e+01
5.000000000000000000e+00,8.239597320556640625e+01
5.039999961853027344e+00,8.333205413818359375e+01
5.079999923706054688e+00,8.420503997802734375e+01
5.119999885559082031e+00,8.508213043212890625e+01
5.159999847412109375e+00,8.595682525634765625e+01
5.199999809265136719e+00,8.682760620117187500e+01
5.239999771118164062e+00,8.769528961181640625e+01
5.279999732971191406e+00,8.856260681152343750e+01
5.320000171661376953e+00,8.944180297851562500e+01
5.360000133514404297e+00,9.032090759277343750e+01
5.400000095367431641e+00,9.119776916503906250e+01
5.440000057220458984e+00,9.207152557373046875e+01
5.480000019073486328e+00,9.294447326660156250e+01
5.519999980926513672e+00,9.379249572753906250e+01
5.559999942779541016e+00,9.457453918457031250e+01
5.599999904632568359e+00,9.528662109375000000e+01
5.639999866485595703e+00,9.599510192871093750e+01
5.679999828338623047e+00,9.670111846923828125e+01
5.719999790191650391e+00,9.742445373535156250e+01
5.759999752044677734e+00,9.814566802978515625e+01
5.799999713897705078e+00,9.885597991943359375e+01
5.839999675750732422e+00,9.955590057373046875e+01
5.879999637603759766e+00,1.002536163330078125e+02
5.919999599456787109e+00,1.009408340454101562e+02
5.960000038146972656e+00,1.016256790161132812e+02
6.000000000000000000e+00,1.022558898925781250e+02
6.039999961853027344e+00,1.028302917480468750e+02
6.079999923706054688e+00,1.034015197753906250e+02
6.119999885559082031e+00,1.039205856323242188e+02
6.159999847412109375e+00,1.044027404785156250e+02
6.199999809265136719e+00,1.048847579956054688e+02
6.239999771118164062e+00,1.053669128417968750e+02
6.279999732971191406e+00,1.058457870483398438e+02
6.319999694824218750e+00,1.063355712890625000e+02
6.359999656677246094e+00,1.068221664428710938e+02
6.399999618530273438e+00,1.073022308349609375e+02
6.439999580383300781e+00,1.077758483886718750e+02
6.480000019073486328e+00,1.082464828491210938e+02
6.519999980926513672e+00,1.086880416870117188e+02
6.559999942779541016e+00,1.091265487670898438e+02
6.599999904632568359e+00,1.095583038330078125e+02
6.639999866485595703e+00,1.099832916259765625e+02
6.679999828338623047e+00,1.104053878784179688e+02
6.719999790191650391e+00,1.108083343505859375e+02
6.759999752044677734e+00,1.111608505249023438e+02
6.799999713897705078e+00,1.115031280517578125e+02
6.839999675750732422e+00,1.118352966308593750e+02
6.879999637603759766e+00,1.121645507812500000e+02
6.919999599456787109e+00,1.125043792724609375e+02
6.959999561309814453e+00,1.128414382934570312e+02
7.000000000000000000e+00,1.131465454101562500e+02
7.039999961853027344e+00,1.134194259643554688e+02
7.079999923706054688e+00,1.136901245117187500e+02
7.119999885559082031e+00,1.133620147705078125e+02
7.159999847412109375e+00,1.136290664672851562e+02
7.199999809265136719e+00,1.138879089355468750e+02
7.239999771118164062e+00,1.141388320922851562e+02
7.279999732971191406e+00,1.143871154785156250e+02
7.319999694824218750e+00,1.146193389892578125e+02
7.359999656677246094e+00,1.148489074707031250e+02
7.399999618530273438e+00,1.150612869262695312e+02
7.439999580383300781e+00,1.152564239501953125e+02
7.479999542236328125e+00,1.154490966796875000e+02
7.519999980926513672e+00,1.156471328735351562e+02
7.559999942779541016e+00,1.158427124023437500e+02
7.599999904632568359e+00,1.160169830322265625e+02
7.639999866485595703e+00,1.161697082519531250e+02
7.679999828338623047e+00,1.163200531005859375e+02
7.719999790191650391e+00,1.164836425781250000e+02
7.759999752044677734e+00,1.166451110839843750e+02
7.799999713897705078e+00,1.167854614257812500e+02
7.839999675750732422e+00,1.169043273925781250e+02
7.879999637603759766e+00,1.170208511352539062e+02
7.919999599456787109e+00,1.171238555908203125e+02
7.959999561309814453e+00,1.172245025634765625e+02
7.999999523162841797e+00,1.172983322143554688e+02
8.039999961853027344e+00,1.173453140258789062e+02
8.079999923706054688e+00,1.173900756835937500e+02
8.119999885559082031e+00,1.174338302612304688e+02
8.159999847412109375e+00,1.174437103271484375e+02
8.199999809265136719e+00,1.174370193481445312e+02
8.239999771118164062e+00,1.174423980712890625e+02
8.279999732971191406e+00,1.175311889648437500e+02
8.319999694824218750e+00,1.176299285888671875e+02
8.359999656677246094e+00,1.177266464233398438e+02
8.399999618530273438e+00,1.178089218139648438e+02
8.439999580383300781e+00,1.178769989013671875e+02
8.479999542236328125e+00,1.179429779052734375e+02
8.520000457763671875e+00,1.180167617797851562e+02
8.560000419616699219e+00,1.180884780883789062e+02
8.600000381469726562e+00,1.181457824707031250e+02
8.640000343322753906e+00,1.181884994506835938e+02
8.680000305175781250e+00,1.182292022705078125e+02
8.720000267028808594e+00,1.182699890136718750e+02
8.760000228881835938e+00,1.183087921142578125e+02
8.800000190734863281e+00,1.183341903686523438e+02
8.840000152587890625e+00,1.183461532592773438e+02
8.880000114440917969e+00,1.183560562133789062e+02
8.920000076293945312e+00,1.183524322509765625e+02
8.960000038146972656e+00,1.183296203613281250e+02
9.000000000000000000e+00,1.182833404541015625e+02
9.039999961853027344e+00,1.182231445312500000e+02
9.079999923706054688e+00,1.181609954833984375e+02
9.119999885559082031e+00,1.181281280517578125e+02
9.159999847412109375e+00,1.181891555786132812e+02
9.199999809265136719e+00,1.182328186035156250e+02
9.239999771118164062e+00,1.182590408325195312e+02
9.279999732971191406e+00,1.182829818725585938e+02
9.319999694824218750e+00,1.183406066894531250e+02
9.359999656677246094e+00,1.183959503173828125e+02
9.399999618530273438e+00,1.184275436401367188e+02
9.439999580383300781e+00,1.184353179931640625e+02
9.479999542236328125e+00,1.184407196044921875e+02
9.519999504089355469e+00,1.184445419311523438e+02
9.560000419616699219e+00,1.184461288452148438e+02
9.600000381469726562e+00,1.183616409301757812e+02
9.640000343322753906e+00,1.182153625488281250e+02
9.680000305175781250e+00,1.181400909423828125e+02
9.720000267028808594e+00,1.180587005615234375e+02
9.760000228881835938e+00,1.179747924804687500e+02
9.800000190734863281e+00,1.176898040771484375e+02
9.840000152587890625e+00,1.171996307373046875e+02
9.880000114440917969e+00,1.166950073242187500e+02
9.920000076293945312e+00,1.162412033081054688e+02
9.960000038146972656e+00,1.158423614501953125e+02
1.000000000000000000e+01,1.141590728759765625e+02
1.003999996185302734e+01,1.111584320068359375e+02
1.007999992370605469e+01,1.081657333374023438e+02
1.011999988555908203e+01,1.051726455688476562e+02
1.015999984741210938e+01,1.021890716552734375e+02
1.019999980926513672e+01,9.894557952880859375e+01
1.023999977111816406e+01,9.908118438720703125e+01
1.027999973297119141e+01,9.921374511718750000e+01
1.032000064849853516e+01,9.935131072998046875e+01
1.036000061035156250e+01,9.948598480224609375e+01
1.040000057220458984e+01,1.000028381347656250e+02
1.044000053405761719e+01,1.007590942382812500e+02
1.048000049591064453e+01,1.010684509277343750e+02
1.052000045776367188e+01,1.013452758789062500e+02
1.056000041961669922e+01,1.016197509765625000e+02
1.060000038146972656e+01,1.016054382324218750e+02
1.064000034332275391e+01,1.013037185668945312e+02
1.068000030517578125e+01,1.010009994506835938e+02
1.072000026702880859e+01,1.007202758789062500e+02
1.076000022888183594e+01,1.004385528564453125e+02
1.080000019073486328e+01,1.000989685058593750e+02
1.084000015258789062e+01,9.969502258300781250e+01
1.088000011444091797e+01,9.928731536865234375e+01
1.092000007629394531e+01,9.884617614746093750e+01
1.096000003814697266e+01,9.840510559082031250e+01
1.100000000000000000e+01,9.791129302978515625e+01
1.103999996185302734e+01,9.736517333984375000e+01
1.107999992370605469e+01,9.681993103027343750e+01
1.111999988555908203e+01,9.666445922851562500e+01
1.115999984741210938e+01,9.650827789306640625e+01
1.119999980926513672e+01,9.611252593994140625e+01
1.123999977111816406e+01,9.547764587402343750e+01
1.127999973297119141e+01,9.484266662597656250e+01
1.131999969482421875e+01,9.422985839843750000e+01
1.136000061035156250e+01,9.361672973632812500e+01
1.140000057220458984e+01,9.257109832763671875e+01
1.144000053405761719e+01,9.109185028076171875e+01
1.148000049591064453e+01,8.961063385009765625e+01
1.152000045776367188e+01,8.806864929199218750e+01
1.156000041961669922e+01,8.424356079101562500e+01
1.160000038146972656e+01,8.316514587402343750e+01
1.164000034332275391e+01,8.286244964599609375e+01
1.168000030517578125e+01,8.255732727050781250e+01
1.172000026702880859e+01,8.225569152832031250e+01
1.176000022888183594e+01,8.195044708251953125e+01
1.180000019073486328e+01,8.159744262695312500e+01
1.184000015258789062e+01,8.119835662841796875e+01
1.188000011444091797e+01,8.079904937744140625e+01
1.192000007629394531e+01,8.035810852050781250e+01
1.196000003814697266e+01,7.991481781005859375e+01
1.200000000000000000e+01,7.941373443603515625e+01
1.203999996185302734e+01,7.885526275634765625e+01
1.207999992370605469e+01,7.847015380859375000e+01
1.211999988555908203e+01,7.862063598632812500e+01
1.215999984741210938e+01,7.877093505859375000e+01
1.219999980926513672e+01,7.888343811035156250e+01
1.223999977111816406e+01,7.895791625976562500e+01
1.227999973297119141e+01,7.903205108642578125e+01
1.231999969482421875e+01,7.909241485595703125e+01
1.236000061035156250e+01,7.915248107910156250e+01
1.240000057220458984e+01,7.916035461425781250e+01
1.244000053405761719e+01,7.911623382568359375e+01
1.248000049591064453e+01,7.907164001464843750e+01
1.252000045776367188e+01,7.900256347656250000e+01
1.256000041961669922e+01,7.893322753906250000e+01
1.260000038146972656e+01,7.883576202392578125e+01
1.264000034332275391e+01,7.871028137207031250e+01
1.268000030517578125e+01,7.858457946777343750e+01
1.272000026702880859e+01,7.846138763427734375e+01
1.276000022888183594e+01,7.833787536621093750e+01
1.280000019073486328e+01,7.819692993164062500e+01
1.284000015258789062e+01,7.803855895996093750e+01
1.288000011444091797e+01,7.788021850585937500e+01
1.292000007629394531e+01,7.772865295410156250e+01
1.296000003814697266e+01,7.757684326171875000e+01
1.300000000000000000e+01,7.735092926025390625e+01
1.303999996185302734e+01,7.705102539062500000e+01
1.307999992370605469e+01,7.675120544433593750e+01
1.311999988555908203e+01,7.644667053222656250e+01
1.315999984741210938e+01,7.614124298095703125e+01
1.319999980926513672e+01,7.579396057128906250e+01
1.323999977111816406e+01,7.540519714355468750e+01
1.327999973297119141e+01,7.498370361328125000e+01
1.331999969482421875e+01,7.387701416015625000e+01
1.335999965667724609e+01,7.349940490722656250e+01
1.340000057220458984e+01,7.324594116210937500e+01
1.344000053405761719e+01,7.308273315429687500e+01
1.348000049591064453e+01,7.291912078857421875e+01
1.352000045776367188e+01,7.273789215087890625e+01
1.356000041961669922e+01,7.255642700195312500e+01
1.360000038146972656e+01,7.235144042968750000e+01
1.364000034332275391e+01,7.212313842773437500e+01
1.368000030517578125e+01,7.189440155029296875e+01
1.372000026702880859e+01,7.169667816162109375e+01
1.376000022888183594e+01,7.149850463867187500e+01
1.380000019073486328e+01,7.128118133544921875e+01
1.384000015258789062e+01,7.079981994628906250e+01
1.388000011444091797e+01,7.056297302246093750e+01
1.392000007629394531e+01,7.043137359619140625e+01
1.396000003814697266e+01,7.029995727539062500e+01
1.400000000000000000e+01,7.018183898925781250e+01
1.403999996185302734e+01,7.007703399658203125e+01
1.407999992370605469e+01,6.997195434570312500e+01
1.411999988555908203e+01,6.987960815429687500e+01
1.415999984741210938e+01,6.978695678710937500e+01
1.419999980926513672e+01,6.969239807128906250e+01
1.423999977111816406e+01,6.959591674804687500e+01
1.427999973297119141e+01,6.949914550781250000e+01
1.431999969482421875e+01,6.940354156494140625e+01
1.435999965667724609e+01,6.930767822265625000e+01
1.439999961853027344e+01,6.920417022705078125e+01
1.444000053405761719e+01,6.909084320068359375e+01
1.448000049591064453e+01,6.897737884521484375e+01
1.452000045776367188e+01,6.886493682861328125e+01
1.456000041961669922e+01,6.875220489501953125e+01
1.460000038146972656e+01,6.863818359375000000e+01
1.464000034332275391e+01,6.852280426025390625e+01
1.468000030517578125e+01,6.840719604492187500e+01
1.472000026702880859e+01,6.828239440917968750e+01
1.476000022888183594e+01,6.815740203857421875e+01
1.480000019073486328e+01,6.803120422363281250e+01
1.484000015258789062e+01,6.790377044677734375e+01
1.488000011444091797e+01,6.777599334716796875e+01
1.492000007629394531e+01,6.762644958496093750e+01
1.496000003814697266e+01,6.747676849365234375e+01
1.500000000000000000e+01,6.732749176025390625e+01
1.503999996185302734e+01,6.717857360839843750e+01
1.507999992370605469e+01,6.702950286865234375e+01
1.511999988555908203e+01,6.693061828613281250e+01
1.515999984741210938e+01,6.683142852783203125e+01
1.519999980926513672e+01,6.672959136962890625e+01
1.523999977111816406e+01,6.662510681152343750e+01
1.527999973297119141e+01,6.652024841308593750e+01
1.531999969482421875e+01,6.637581634521484375e+01
1.535999965667724609e+01,6.623120117187500000e+01
1.539999961853027344e+01,6.608657836914062500e+01
1.544000053405761719e+01,6.594196319580078125e+01
1.548000049591064453e+01,6.579716491699218750e+01
1.552000045776367188e+01,6.567808532714843750e+01
1.556000041961669922e+01,6.555867767333984375e+01
1.560000038146972656e+01,6.544253540039062500e+01
1.564000034332275391e+01,6.532962799072265625e+01
1.568000030517578125e+01,6.521640777587890625e+01
1.572000026702880859e+01,6.508667755126953125e+01
1.576000022888183594e+01,6.495665740966796875e+01
1.580000019073486328e+01,6.482203674316406250e+01
1.584000015258789062e+01,6.468278503417968750e+01
1.588000011444091797e+01,6.454201507568359375e+01
1.592000007629394531e+01,6.443052673339843750e+01
1.596000003814697266e+01,6.431863403320312500e+01
1.600000000000000000e+01,6.420384979248046875e+01
1.603999900817871094e+01,6.408618164062500000e+01
1.607999992370605469e+01,6.396813583374023438e+01
1.611999893188476562e+01,6.383115005493164062e+01
1.615999984741210938e+01,6.369387054443359375e+01
1.619999885559082031e+01,6.355633544921875000e+01
1.623999977111816406e+01,6.341849136352539062e+01
1.627999877929687500e+01,6.328039932250976562e+01
1.631999969482421875e+01,6.313460922241210938e+01
1.635999870300292969e+01,6.298859786987304688e+01
1.639999961853027344e+01,6.284235763549804688e+01
1.643999862670898438e+01,6.269592285156250000e+01
1.647999954223632812e+01,6.254921722412109375e+01
1.652000045776367188e+01,6.240392303466796875e+01
1.655999946594238281e+01,6.225842666625976562e+01
1.660000038146972656e+01,6.211272048950195312e+01
1.663999938964843750e+01,6.196678543090820312e+01
1.668000030517578125e+01,6.182062911987304688e+01
1.671999931335449219e+01,6.166489410400390625e+01
1.676000022888183594e+01,6.150897979736328125e+01
1.679999923706054688e+01,6.135289382934570312e+01
1.684000015258789062e+01,6.119664001464843750e+01
1.687999916076660156e+01,6.104022979736328125e+01
1.692000007629394531e+01,6.089943695068359375e+01
1.695999908447265625e+01,6.075842285156250000e+01
1.700000000000000000e+01,6.061688232421875000e+01
1.703999900817871094e+01,6.047480010986328125e+01
1.707999992370605469e+01,6.033252334594726562e+01
1.711999893188476562e+01,6.019614791870117188e+01
1.715999984741210938e+01,6.005952835083007812e+01
1.719999885559082031e+01,5.992276000976562500e+01
1.723999977111816406e+01,5.978578948974609375e+01
1.727999877929687500e+01,5.961663055419921875e+01
1.731999969482421875e+01,5.941287231445312500e+01
1.735999870300292969e+01,5.920935058593750000e+01
1.739999961853027344e+01,5.900599670410156250e+01
1.743999862670898438e+01,5.880261993408203125e+01
1.747999954223632812e+01,5.859876251220703125e+01
