# Start of Energy Bin (keV), Effective Area (cm^2)
1.600000023841857910e+00,4.046871066093444824e-01
1.639999985694885254e+00,5.598896145820617676e-01
1.680000066757202148e+00,7.719011306762695312e-01
1.720000028610229492e+00,1.060697555541992188e+00
1.759999990463256836e+00,1.431857228279113770e+00
1.799999952316284180e+00,1.798851609230041504e+00
1.840000033378601074e+00,9.941334128379821777e-01
1.879999995231628418e+00,1.265419006347656250e+00
1.920000076293945312e+00,1.649901866912841797e+00
1.960000038146972656e+00,2.079338788986206055e+00
2.000000000000000000e+00,2.573207855224609375e+00
2.039999961853027344e+00,3.156534433364868164e+00
2.079999923706054688e+00,3.866841554641723633e+00
2.119999885559082031e+00,3.522901058197021484e+00
2.160000085830688477e+00,4.090129852294921875e+00
2.200000047683715820e+00,4.266213893890380859e+00
2.240000009536743164e+00,4.883186817169189453e+00
2.279999971389770508e+00,5.605068683624267578e+00
2.319999933242797852e+00,6.493949890136718750e+00
2.360000133514404297e+00,7.356969833374023438e+00
2.400000095367431641e+00,8.184313774108886719e+00
2.440000057220458984e+00,9.121154785156250000e+00
2.480000019073486328e+00,1.021601390838623047e+01
2.519999980926513672e+00,1.153567409515380859e+01
2.559999942779541016e+00,1.298561096191406250e+01
2.599999904632568359e+00,1.429877281188964844e+01
2.639999866485595703e+00,1.457325839996337891e+01
2.679999828338623047e+00,1.588740921020507812e+01
2.720000028610229492e+00,1.729961013793945312e+01
2.759999990463256836e+00,1.882698059082031250e+01
2.799999952316284180e+00,2.047156143188476562e+01
2.840000152587890625e+00,2.217108917236328125e+01
2.880000114440917969e+00,2.363473701477050781e+01
2.920000076293945312e+00,2.516887855529785156e+01
2.960000038146972656e+00,2.679407119750976562e+01
3.000000000000000000e+00,2.853115081787109375e+01
3.039999961853027344e+00,2.952071952819824219e+01
3.079999923706054688e+00,3.126935577392578125e+01
3.119999885559082031e+00,3.307843780517578125e+01
3.159999847412109375e+00,3.457293701171875000e+01
3.199999809265136719e+00,3.611453628540039062e+01
3.240000009536743164e+00,3.770545959472656250e+01
3.279999971389770508e+00,3.882463836669921875e+01
3.319999933242797852e+00,4.114094543457031250e+01
3.360000133514404297e+00,4.357723999023437500e+01
3.400000095367431641e+00,4.612778472900390625e+01
3.440000057220458984e+00,4.798480606079101562e+01
3.480000019073486328e+00,4.928643798828125000e+01
3.519999980926513672e+00,4.779589462280273438e+01
3.559999942779541016e+00,4.907554626464843750e+01
3.599999904632568359e+00,5.039912414550781250e+01
3.639999866485595703e+00,5.173883819580078125e+01
3.679999828338623047e+00,5.309687805175781250e+01
3.719999790191650391e+00,5.302529144287109375e+01
3.759999752044677734e+00,5.443488693237304688e+01
3.800000190734863281e+00,5.566099929809570312e+01
3.840000152587890625e+00,5.675799560546875000e+01
3.880000114440917969e+00,5.785675048828125000e+01
3.920000076293945312e+00,5.928881835937500000e+01
3.960000038146972656e+00,6.085052490234375000e+01
4.000000000000000000e+00,6.163615798950195312e+01
4.039999961853027344e+00,6.316828918457031250e+01
4.079999923706054688e+00,6.472023773193359375e+01
4.119999885559082031e+00,6.629496765136718750e+01
4.159999847412109375e+00,6.787207031250000000e+01
4.199999809265136719e+00,6.922821044921875000e+01
4.239999771118164062e+00,7.059318542480468750e+01
4.279999732971191406e+00,7.197056579589843750e+01
4.320000171661376953e+00,7.066095733642578125e+01
4.360000133514404297e+00,7.102907562255859375e+01
4.400000095367431641e+00,7.218302917480468750e+01
4.440000057220458984e+00,7.334371185302734375e+01
4.480000019073486328e+00,7.451721191406250000e+01
4.519999980926513672e+00,7.570195007324218750e+01
4.559999942779541016e+00,7.688603210449218750e+01
4.599999904632568359e+00,7.604534149169921875e+01
4.639999866485595703e+00,7.710617065429687500e+01
4.679999828338623047e+00,7.807273864746093750e+01
4.719999790191650391e+00,7.903376770019531250e+01
4.759999752044677734e+00,7.999523162841796875e+01
4.799999713897705078e+00,8.095671081542968750e+01
4.840000152587890625e+00,8.191358947753906250e+01
4.880000114440917969e+00,8.286873626708984375e+01
4.920000076293945312e+00,8.289950561523437500e+01
4.960000038146972656e+00,8.385560607910156250e+01
5.000000000000000000e+00,8.478932189941406250e+01
5.039999961853027344e+00,8.577185058593750000e+01
5.079999923706054688e+00,8.668930053710937500e+01
5.119999885559082031e+00,8.760646057128906250e+01
5.159999847412109375e+00,8.852143859863281250e+01
5.199999809265136719e+00,8.943277740478515625e+01
5.239999771118164062e+00,9.034132385253906250e+01
5.279999732971191406e+00,9.124978637695312500e+01
5.320000171661376953e+00,9.215173339843750000e+01
5.360000133514404297e+00,9.305346679687500000e+01
5.400000095367431641e+00,9.395296478271484375e+01
5.440000057220458984e+00,9.484932708740234375e+01
5.480000019073486328e+00,9.574476623535156250e+01
5.519999980926513672e+00,9.665171813964843750e+01
5.559999942779541016e+00,9.749125671386718750e+01
5.599999904632568359e+00,9.825939941406250000e+01
5.639999866485595703e+00,9.902453613281250000e+01
5.679999828338623047e+00,9.978763580322265625e+01
5.719999790191650391e+00,1.005404663085937500e+02
5.759999752044677734e+00,1.012911758422851562e+02
5.799999713897705078e+00,1.020310363769531250e+02
5.839999675750732422e+00,1.027606277465820312e+02
5.879999637603759766e+00,1.034880065917968750e+02
5.919999599456787109e+00,1.042118682861328125e+02
5.960000038146972656e+00,1.049334564208984375e+02
6.000000000000000000e+00,1.055972595214843750e+02
6.039999961853027344e+00,1.062020339965820312e+02
6.079999923706054688e+00,1.068036499023437500e+02
6.119999885559082031e+00,1.073595199584960938e+02
6.159999847412109375e+00,1.078774414062500000e+02
6.199999809265136719e+00,1.083957595825195312e+02
6.239999771118164062e+00,1.089147338867187500e+02
6.279999732971191406e+00,1.094305267333984375e+02
6.319999694824218750e+00,1.099377136230468750e+02
6.359999656677246094e+00,1.104416122436523438e+02
6.399999618530273438e+00,1.109394073486328125e+02
6.439999580383300781e+00,1.114311676025390625e+02
6.480000019073486328e+00,1.119198760986328125e+02
6.519999980926513672e+00,1.124057922363281250e+02
6.559999942779541016e+00,1.128888092041015625e+02
6.599999904632568359e+00,1.133660278320312500e+02
6.639999866485595703e+00,1.138374328613281250e+02
6.679999828338623047e+00,1.143061218261718750e+02
6.719999790191650391e+00,1.147482147216796875e+02
6.759999752044677734e+00,1.151382904052734375e+02
6.799999713897705078e+00,1.155195922851562500e+02
6.839999675750732422e+00,1.158923034667968750e+02
6.879999637603759766e+00,1.162621841430664062e+02
6.919999599456787109e+00,1.166295623779296875e+02
6.959999561309814453e+00,1.169941864013671875e+02
7.000000000000000000e+00,1.173337402343750000e+02
7.039999961853027344e+00,1.176480102539062500e+02
7.079999923706054688e+00,1.179601974487304688e+02
7.119999885559082031e+00,1.176502838134765625e+02
7.159999847412109375e+00,1.179580612182617188e+02
7.199999809265136719e+00,1.182643127441406250e+02
7.239999771118164062e+00,1.185694427490234375e+02
7.279999732971191406e+00,1.188720703125000000e+02
7.319999694824218750e+00,1.191708679199218750e+02
7.359999656677246094e+00,1.194671936035156250e+02
7.399999618530273438e+00,1.197538146972656250e+02
7.439999580383300781e+00,1.200307312011718750e+02
7.479999542236328125e+00,1.203054199218750000e+02
7.519999980926513672e+00,1.205720901489257812e+02
7.559999942779541016e+00,1.208364715576171875e+02
7.599999904632568359e+00,1.210891723632812500e+02
7.639999866485595703e+00,1.213300170898437500e+02
7.679999828338623047e+00,1.215687408447265625e+02
7.719999790191650391e+00,1.218242187500000000e+02
7.759999752044677734e+00,1.220778961181640625e+02
7.799999713897705078e+00,1.223164520263671875e+02
7.839999675750732422e+00,1.225395202636718750e+02
7.879999637603759766e+00,1.227605895996093750e+02
7.919999599456787109e+00,1.229633941650390625e+02
7.959999561309814453e+00,1.231641082763671875e+02
7.999999523162841797e+00,1.233292770385742188e+02
8.039999961853027344e+00,1.234588012695312500e+02
8.079999923706054688e+00,1.235862884521484375e+02
8.119999885559082031e+00,1.237181549072265625e+02
8.159999847412109375e+00,1.238146057128906250e+02
8.199999809265136719e+00,1.238868713378906250e+02
8.239999771118164062e+00,1.239569702148437500e+02
8.279999732971191406e+00,1.240909118652343750e+02
8.319999694824218750e+00,1.242339324951171875e+02
8.359999656677246094e+00,1.243750915527343750e+02
8.399999618530273438e+00,1.244921569824218750e+02
8.439999580383300781e+00,1.245853195190429688e+02
8.479999542236328125e+00,1.246764831542968750e+02
8.520000457763671875e+00,1.247710418701171875e+02
8.560000419616699219e+00,1.248636169433593750e+02
8.600000381469726562e+00,1.249334182739257812e+02
8.640000343322753906e+00,1.249802398681640625e+02
8.680000305175781250e+00,1.250250625610351562e+02
8.720000267028808594e+00,1.250593109130859375e+02
8.760000228881835938e+00,1.250915985107421875e+02
8.800000190734863281e+00,1.251043930053710938e+02
8.840000152587890625e+00,1.250976638793945312e+02
8.880000114440917969e+00,1.250888824462890625e+02
8.920000076293945312e+00,1.251063232421875000e+02
8.960000038146972656e+00,1.251035614013671875e+02
9.000000000000000000e+00,1.250727386474609375e+02
9.039999961853027344e+00,1.250239410400390625e+02
9.079999923706054688e+00,1.249731063842773438e+02
9.119999885559082031e+00,1.249314880371093750e+02
9.159999847412109375e+00,1.249631652832031250e+02
9.199999809265136719e+00,1.249756774902343750e+02
9.239999771118164062e+00,1.249689102172851562e+02
9.279999732971191406e+00,1.249599456787109375e+02
9.319999694824218750e+00,1.249699020385742188e+02
9.359999656677246094e+00,1.249776687622070312e+02
9.399999618530273438e+00,1.249606628417968750e+02
9.439999580383300781e+00,1.249188537597656250e+02
9.479999542236328125e+00,1.248747863769531250e+02
9.519999504089355469e+00,1.248513793945312500e+02
9.560000419616699219e+00,1.248257904052734375e+02
9.600000381469726562e+00,1.247085876464843750e+02
9.640000343322753906e+00,1.245254211425781250e+02
9.680000305175781250e+00,1.244172973632812500e+02
9.720000267028808594e+00,1.242869262695312500e+02
9.760000228881835938e+00,1.241541900634765625e+02
9.800000190734863281e+00,1.238213500976562500e+02
9.840000152587890625e+00,1.232843933105468750e+02
9.880000114440917969e+00,1.227329101562500000e+02
9.920000076293945312e+00,1.222124938964843750e+02
9.960000038146972656e+00,1.217973175048828125e+02
1.000000000000000000e+01,1.200980377197265625e+02
1.003999996185302734e+01,1.170433044433593750e+02
1.007999992370605469e+01,1.139926757812500000e+02
1.011999988555908203e+01,1.109531021118164062e+02
1.015999984741210938e+01,1.079182586669921875e+02
1.019999980926513672e+01,1.045993423461914062e+02
1.023999977111816406e+01,1.047495422363281250e+02
1.027999973297119141e+01,1.048964385986328125e+02
1.032000064849853516e+01,1.050224304199218750e+02
1.036000061035156250e+01,1.051452636718750000e+02
1.040000057220458984e+01,1.056705169677734375e+02
1.044000053405761719e+01,1.064477081298828125e+02
1.048000049591064453e+01,1.067545776367187500e+02
1.052000045776367188e+01,1.070552062988281250e+02
1.056000041961669922e+01,1.073536834716796875e+02
1.060000038146972656e+01,1.073624725341796875e+02
1.064000034332275391e+01,1.070828094482421875e+02
1.068000030517578125e+01,1.068021316528320312e+02
1.072000026702880859e+01,1.065324249267578125e+02
1.076000022888183594e+01,1.062617797851562500e+02
1.080000019073486328e+01,1.059330596923828125e+02
1.084000015258789062e+01,1.055392837524414062e+02
1.088000011444091797e+01,1.051415710449218750e+02
1.092000007629394531e+01,1.047126998901367188e+02
1.096000003814697266e+01,1.042838821411132812e+02
1.100000000000000000e+01,1.038005828857421875e+02
1.103999996185302734e+01,1.032631835937500000e+02
1.107999992370605469e+01,1.027265777587890625e+02
1.111999988555908203e+01,1.026143188476562500e+02
1.115999984741210938e+01,1.025011596679687500e+02
1.119999980926513672e+01,1.021391906738281250e+02
1.123999977111816406e+01,1.015284500122070312e+02
1.127999973297119141e+01,1.009168853759765625e+02
1.131999969482421875e+01,1.003028564453125000e+02
1.136000061035156250e+01,9.968812561035156250e+01
1.140000057220458984e+01,9.859362792968750000e+01
1.144000053405761719e+01,9.701844787597656250e+01
1.148000049591064453e+01,9.544114685058593750e+01
1.152000045776367188e+01,9.379517364501953125e+01
1.156000041961669922e+01,8.969004058837890625e+01
1.160000038146972656e+01,8.852317810058593750e+01
1.164000034332275391e+01,8.819407653808593750e+01
1.168000030517578125e+01,8.786243438720703125e+01
1.172000026702880859e+01,8.752053070068359375e+01
1.176000022888183594e+01,8.717497253417968750e+01
1.180000019073486328e+01,8.677823638916015625e+01
1.184000015258789062e+01,8.633216857910156250e+01
1.188000011444091797e+01,8.588616180419921875e+01
1.192000007629394531e+01,8.543789672851562500e+01
1.196000003814697266e+01,8.498690032958984375e+01
1.200000000000000000e+01,8.447239685058593750e+01
1.203999996185302734e+01,8.389477539062500000e+01
1.207999992370605469e+01,8.349661254882812500e+01
1.211999988555908203e+01,8.360334014892578125e+01
1.215999984741210938e+01,8.370965576171875000e+01
1.219999980926513672e+01,8.377777099609375000e+01
1.223999977111816406e+01,8.380754089355468750e+01
1.227999973297119141e+01,8.383690643310546875e+01
1.231999969482421875e+01,8.388407135009765625e+01
1.236000061035156250e+01,8.393090057373046875e+01
1.240000057220458984e+01,8.392332458496093750e+01
1.244000053405761719e+01,8.386156463623046875e+01
1.248000049591064453e+01,8.379934692382812500e+01
1.252000045776367188e+01,8.372100067138671875e+01
1.256000041961669922e+01,8.364237976074218750e+01
1.260000038146972656e+01,8.353376770019531250e+01
1.264000034332275391e+01,8.339525604248046875e+01
1.268000030517578125e+01,8.325650787353515625e+01
1.272000026702880859e+01,8.310986328125000000e+01
1.276000022888183594e+01,8.296293640136718750e+01
1.280000019073486328e+01,8.279705810546875000e+01
1.284000015258789062e+01,8.261227416992187500e+01
1.288000011444091797e+01,8.242758941650390625e+01
1.292000007629394531e+01,8.223941802978515625e+01
1.296000003814697266e+01,8.205111694335937500e+01
1.300000000000000000e+01,8.178112792968750000e+01
1.303999996185302734e+01,8.142969512939453125e+01
1.307999992370605469e+01,8.107865142822265625e+01
1.311999988555908203e+01,8.071099090576171875e+01
1.315999984741210938e+01,8.034275817871093750e+01
1.319999980926513672e+01,7.992932128906250000e+01
1.323999977111816406e+01,7.947114562988281250e+01
1.327999973297119141e+01,7.899025726318359375e+01
1.331999969482421875e+01,7.782248687744140625e+01
1.335999965667724609e+01,7.741347503662109375e+01
1.340000057220458984e+01,7.713394165039062500e+01
1.344000053405761719e+01,7.695120239257812500e+01
1.348000049591064453e+01,7.676811218261718750e+01
1.352000045776367188e+01,7.657071685791015625e+01
1.356000041961669922e+01,7.637310791015625000e+01
1.360000038146972656e+01,7.614967346191406250e+01
1.364000034332275391e+01,7.590061950683593750e+01
1.368000030517578125e+01,7.565116119384765625e+01
1.372000026702880859e+01,7.540179443359375000e+01
1.376000022888183594e+01,7.515222167968750000e+01
1.380000019073486328e+01,7.488280487060546875e+01
1.384000015258789062e+01,7.433646392822265625e+01
1.388000011444091797e+01,7.405264282226562500e+01
1.392000007629394531e+01,7.389456939697265625e+01
1.396000003814697266e+01,7.373677825927734375e+01
1.400000000000000000e+01,7.359321594238281250e+01
1.403999996185302734e+01,7.346388244628906250e+01
1.407999992370605469e+01,7.333432006835937500e+01
1.411999988555908203e+01,7.321047973632812500e+01
1.415999984741210938e+01,7.308642578125000000e+01
1.419999980926513672e+01,7.296008300781250000e+01
1.423999977111816406e+01,7.283143615722656250e+01
1.427999973297119141e+01,7.270258331298828125e+01
1.431999969482421875e+01,7.258040618896484375e+01
1.435999965667724609e+01,7.245802307128906250e+01
1.439999961853027344e+01,7.232735443115234375e+01
1.444000053405761719e+01,7.218614196777343750e+01
1.448000049591064453e+01,7.204486846923828125e+01
1.452000045776367188e+01,7.191188049316406250e+01
1.456000041961669922e+01,7.177866363525390625e+01
1.460000038146972656e+01,7.164366149902343750e+01
1.464000034332275391e+01,7.150682067871093750e+01
1.468000030517578125e+01,7.136979675292968750e+01
1.472000026702880859e+01,7.121625518798828125e+01
1.476000022888183594e+01,7.106261444091796875e+01
1.480000019073486328e+01,7.090757751464843750e+01
1.484000015258789062e+01,7.075111389160156250e+01
1.488000011444091797e+01,7.059439086914062500e+01
1.492000007629394531e+01,7.044095611572265625e+01
1.496000003814697266e+01,7.028736877441406250e+01
1.500000000000000000e+01,7.013388061523437500e+01
1.503999996185302734e+01,6.998042297363281250e+01
1.507999992370605469e+01,6.982681274414062500e+01
1.511999988555908203e+01,6.967623901367187500e+01
1.515999984741210938e+01,6.952552795410156250e+01
1.519999980926513672e+01,6.937248229980468750e+01
1.523999977111816406e+01,6.921707916259765625e+01
1.527999973297119141e+01,6.906150817871093750e+01
1.531999969482421875e+01,6.889868164062500000e+01
1.535999965667724609e+01,6.873571777343750000e+01
1.539999961853027344e+01,6.857313537597656250e+01
1.544000053405761719e+01,6.841092681884765625e+01
1.548000049591064453e+01,6.824859619140625000e+01
1.552000045776367188e+01,6.809825134277343750e+01
1.556000041961669922e+01,6.794767761230468750e+01
1.560000038146972656e+01,6.780112457275390625e+01
1.564000034332275391e+01,6.765856933593750000e+01
1.568000030517578125e+01,6.751579284667968750e+01
1.572000026702880859e+01,6.737438201904296875e+01
1.576000022888183594e+01,6.723283386230468750e+01
1.580000019073486328e+01,6.708738708496093750e+01
1.584000015258789062e+01,6.693798065185546875e+01
1.588000011444091797e+01,6.678703308105468750e+01
1.592000007629394531e+01,6.664450073242187500e+01
1.596000003814697266e+01,6.650169372558593750e+01
1.600000000000000000e+01,6.635784912109375000e+01
1.603999900817871094e+01,6.621294403076171875e+01
1.607999992370605469e+01,6.606778717041015625e+01
1.611999893188476562e+01,6.591676330566406250e+01
1.615999984741210938e+01,6.576550292968750000e+01
1.619999885559082031e+01,6.561401367187500000e+01
1.623999977111816406e+01,6.546228790283203125e+01
1.627999877929687500e+01,6.531034851074218750e+01
1.631999969482421875e+01,6.516102600097656250e+01
1.635999870300292969e+01,6.501148223876953125e+01
1.639999961853027344e+01,6.486170959472656250e+01
1.643999862670898438e+01,6.471172332763671875e+01
1.647999954223632812e+01,6.456147003173828125e+01
1.652000045776367188e+01,6.440575408935546875e+01
1.655999946594238281e+01,6.424987792968750000e+01
1.660000038146972656e+01,6.409383392333984375e+01
1.663999938964843750e+01,6.393759918212890625e+01
1.668000030517578125e+01,6.378117752075195312e+01
1.671999931335449219e+01,6.363388442993164062e+01
1.676000022888183594e+01,6.348634338378906250e+01
1.679999923706054688e+01,6.333856964111328125e+01
1.684000015258789062e+01,6.319057464599609375e+01
1.687999916076660156e+01,6.304235076904296875e+01
1.692000007629394531e+01,6.288693618774414062e+01
1.695999908447265625e+01,6.273136138916015625e+01
1.700000000000000000e+01,6.257450103759765625e+01
1.703999900817871094e+01,6.241633605957031250e+01
1.707999992370605469e+01,6.225806427001953125e+01
1.711999893188476562e+01,6.211092376708984375e+01
1.715999984741210938e+01,6.196358871459960938e+01
1.719999885559082031e+01,6.181616210937500000e+01
1.723999977111816406e+01,6.166858291625976562e+01
1.727999877929687500e+01,6.149515533447265625e+01
1.731999969482421875e+01,6.129981231689453125e+01
1.735999870300292969e+01,6.110462951660156250e+01
1.739999961853027344e+01,6.090954589843750000e+01
1.743999862670898438e+01,6.071436309814453125e+01
1.747999954223632812e+01,6.051860809326171875e+01
