# Start of Energy Bin (keV), Effective Area (cm^2)
1.600000023841857910e+00,1.736991763114929199e+00
1.639999985694885254e+00,2.342784643173217773e+00
1.680000066757202148e+00,3.153960227966308594e+00
1.720000028610229492e+00,4.238619804382324219e+00
1.759999990463256836e+00,5.609577655792236328e+00
1.799999952316284180e+00,6.958598136901855469e+00
1.840000033378601074e+00,4.278499603271484375e+00
1.879999995231628418e+00,5.326729297637939453e+00
1.920000076293945312e+00,6.762054443359375000e+00
1.960000038146972656e+00,8.331173896789550781e+00
2.000000000000000000e+00,1.008741188049316406e+01
2.039999961853027344e+00,1.210632896423339844e+01
2.079999923706054688e+00,1.452010726928710938e+01
2.119999885559082031e+00,1.253589057922363281e+01
2.160000085830688477e+00,1.437140083312988281e+01
2.200000047683715820e+00,1.462538909912109375e+01
2.240000009536743164e+00,1.653929328918457031e+01
2.279999971389770508e+00,1.876314353942871094e+01
2.319999933242797852e+00,2.147714614868164062e+01
2.360000133514404297e+00,2.407250976562500000e+01
2.400000095367431641e+00,2.653123855590820312e+01
2.440000057220458984e+00,2.931664085388183594e+01
2.480000019073486328e+00,3.258680725097656250e+01
2.519999980926513672e+00,3.656323242187500000e+01
2.559999942779541016e+00,4.091108322143554688e+01
2.599999904632568359e+00,4.483709335327148438e+01
2.639999866485595703e+00,4.512123107910156250e+01
2.679999828338623047e+00,4.901257324218750000e+01
2.720000028610229492e+00,5.319075393676757812e+01
2.759999990463256836e+00,5.769964599609375000e+01
2.799999952316284180e+00,6.254108428955078125e+01
2.840000152587890625e+00,6.752592468261718750e+01
2.880000114440917969e+00,7.182620239257812500e+01
2.920000076293945312e+00,7.631371307373046875e+01
2.960000038146972656e+00,8.106180572509765625e+01
3.000000000000000000e+00,8.660189819335937500e+01
3.039999961853027344e+00,9.004025268554687500e+01
3.079999923706054688e+00,9.613427734375000000e+01
3.119999885559082031e+00,1.025067062377929688e+02
3.159999847412109375e+00,1.080545806884765625e+02
3.199999809265136719e+00,1.138264923095703125e+02
3.240000009536743164e+00,1.198327789306640625e+02
3.279999971389770508e+00,1.241983032226562500e+02
3.319999933242797852e+00,1.289048461914062500e+02
3.360000133514404297e+00,1.337232208251953125e+02
3.400000095367431641e+00,1.386637573242187500e+02
3.440000057220458984e+00,1.434542236328125000e+02
3.480000019073486328e+00,1.473176879882812500e+02
3.519999980926513672e+00,1.459298248291015625e+02
3.559999942779541016e+00,1.498124694824218750e+02
3.599999904632568359e+00,1.537910766601562500e+02
3.639999866485595703e+00,1.578117218017578125e+02
3.679999828338623047e+00,1.618849182128906250e+02
3.719999790191650391e+00,1.632072448730468750e+02
3.759999752044677734e+00,1.673966674804687500e+02
3.800000190734863281e+00,1.710629272460937500e+02
3.840000152587890625e+00,1.743468475341796875e+02
3.880000114440917969e+00,1.776376190185546875e+02
3.920000076293945312e+00,1.817281036376953125e+02
3.960000038146972656e+00,1.861269531250000000e+02
4.000000000000000000e+00,1.890075683593750000e+02
4.039999961853027344e+00,1.932978363037109375e+02
4.079999923706054688e+00,1.976364440917968750e+02
4.119999885559082031e+00,2.020242919921875000e+02
4.159999847412109375e+00,2.064078521728515625e+02
4.199999809265136719e+00,2.101446838378906250e+02
4.239999771118164062e+00,2.138985137939453125e+02
4.279999732971191406e+00,2.176779174804687500e+02
4.320000171661376953e+00,2.163225402832031250e+02
4.360000133514404297e+00,2.180614624023437500e+02
4.400000095367431641e+00,2.212769165039062500e+02
4.440000057220458984e+00,2.245038604736328125e+02
4.480000019073486328e+00,2.277540130615234375e+02
4.519999980926513672e+00,2.310189056396484375e+02
4.559999942779541016e+00,2.342823333740234375e+02
4.599999904632568359e+00,2.335133514404296875e+02
4.639999866485595703e+00,2.363112792968750000e+02
4.679999828338623047e+00,2.389253540039062500e+02
4.719999790191650391e+00,2.415366668701171875e+02
4.759999752044677734e+00,2.441463623046875000e+02
4.799999713897705078e+00,2.467499694824218750e+02
4.840000152587890625e+00,2.493389129638671875e+02
4.880000114440917969e+00,2.519203186035156250e+02
4.920000076293945312e+00,2.527258453369140625e+02
4.960000038146972656e+00,2.553015136718750000e+02
5.000000000000000000e+00,2.578083801269531250e+02
5.039999961853027344e+00,2.606992492675781250e+02
5.079999923706054688e+00,2.635692138671875000e+02
5.119999885559082031e+00,2.664378356933593750e+02
5.159999847412109375e+00,2.693054504394531250e+02
5.199999809265136719e+00,2.721686706542968750e+02
5.239999771118164062e+00,2.750297241210937500e+02
5.279999732971191406e+00,2.778946228027343750e+02
5.320000171661376953e+00,2.807649230957031250e+02
5.360000133514404297e+00,2.836395263671875000e+02
5.400000095367431641e+00,2.865139770507812500e+02
5.440000057220458984e+00,2.893860473632812500e+02
5.480000019073486328e+00,2.922613525390625000e+02
5.519999980926513672e+00,2.951404418945312500e+02
5.559999942779541016e+00,2.978277587890625000e+02
5.599999904632568359e+00,3.003131713867187500e+02
5.639999866485595703e+00,3.027966308593750000e+02
5.679999828338623047e+00,3.052785339355468750e+02
5.719999790191650391e+00,3.077597045898437500e+02
5.759999752044677734e+00,3.102390747070312500e+02
5.799999713897705078e+00,3.126934204101562500e+02
5.839999675750732422e+00,3.151242675781250000e+02
5.879999637603759766e+00,3.175538635253906250e+02
5.919999599456787109e+00,3.199823913574218750e+02
5.960000038146972656e+00,3.224092407226562500e+02
6.000000000000000000e+00,3.245499877929687500e+02
6.039999961853027344e+00,3.263990173339843750e+02
6.079999923706054688e+00,3.282409667968750000e+02
6.119999885559082031e+00,3.299269409179687500e+02
6.159999847412109375e+00,3.315045776367187500e+02
6.199999809265136719e+00,3.330868530273437500e+02
6.239999771118164062e+00,3.346738281250000000e+02
6.279999732971191406e+00,3.362532958984375000e+02
6.319999694824218750e+00,3.378256530761718750e+02
6.359999656677246094e+00,3.393903808593750000e+02
6.399999618530273438e+00,3.409418640136718750e+02
6.439999580383300781e+00,3.424804687500000000e+02
6.480000019073486328e+00,3.440115661621093750e+02
6.519999980926513672e+00,3.455361938476562500e+02
6.559999942779541016e+00,3.470540771484375000e+02
6.599999904632568359e+00,3.485602111816406250e+02
6.639999866485595703e+00,3.500545654296875000e+02
6.679999828338623047e+00,3.515429687500000000e+02
6.719999790191650391e+00,3.529563598632812500e+02
6.759999752044677734e+00,3.542194213867187500e+02
6.799999713897705078e+00,3.554637451171875000e+02
6.839999675750732422e+00,3.566899414062500000e+02
6.879999637603759766e+00,3.579097900390625000e+02
6.919999599456787109e+00,3.591231689453125000e+02
6.959999561309814453e+00,3.603301086425781250e+02
7.000000000000000000e+00,3.614334106445312500e+02
7.039999961853027344e+00,3.624319152832031250e+02
7.079999923706054688e+00,3.634256896972656250e+02
7.119999885559082031e+00,3.624848937988281250e+02
7.159999847412109375e+00,3.634488525390625000e+02
7.199999809265136719e+00,3.644556579589843750e+02
7.239999771118164062e+00,3.655060424804687500e+02
7.279999732971191406e+00,3.665508422851562500e+02
7.319999694824218750e+00,3.675899047851562500e+02
7.359999656677246094e+00,3.686229553222656250e+02
7.399999618530273438e+00,3.696414489746093750e+02
7.439999580383300781e+00,3.706450500488281250e+02
7.479999542236328125e+00,3.716439819335937500e+02
7.519999980926513672e+00,3.726371459960937500e+02
7.559999942779541016e+00,3.736252441406250000e+02
7.599999904632568359e+00,3.746015625000000000e+02
7.639999866485595703e+00,3.755657958984375000e+02
7.679999828338623047e+00,3.765251770019531250e+02
7.719999790191650391e+00,3.774801940917968750e+02
7.759999752044677734e+00,3.784313354492187500e+02
7.799999713897705078e+00,3.793730773925781250e+02
7.839999675750732422e+00,3.803048095703125000e+02
7.879999637603759766e+00,3.812323608398437500e+02
7.919999599456787109e+00,3.821557922363281250e+02
7.959999561309814453e+00,3.830748901367187500e+02
7.999999523162841797e+00,3.839814758300781250e+02
8.039999961853027344e+00,3.848754577636718750e+02
8.079999923706054688e+00,3.857659606933593750e+02
8.119999885559082031e+00,3.866528320312500000e+02
8.159999847412109375e+00,3.874367980957031250e+02
8.199999809265136719e+00,3.882096862792968750e+02
8.239999771118164062e+00,3.889101562500000000e+02
8.279999732971191406e+00,3.894227600097656250e+02
8.319999694824218750e+00,3.899309082031250000e+02
8.359999656677246094e+00,3.904350280761718750e+02
8.399999618530273438e+00,3.909263916015625000e+02
8.439999580383300781e+00,3.914055786132812500e+02
8.479999542236328125e+00,3.918805236816406250e+02
8.520000457763671875e+00,3.923520202636718750e+02
8.560000419616699219e+00,3.928194885253906250e+02
8.600000381469726562e+00,3.932719421386718750e+02
8.640000343322753906e+00,3.937092590332031250e+02
8.680000305175781250e+00,3.941426391601562500e+02
8.720000267028808594e+00,3.945722351074218750e+02
8.760000228881835938e+00,3.949984741210937500e+02
8.800000190734863281e+00,3.954095458984375000e+02
8.840000152587890625e+00,3.958054809570312500e+02
8.880000114440917969e+00,3.961982421875000000e+02
8.920000076293945312e+00,3.965883483886718750e+02
8.960000038146972656e+00,3.969200744628906250e+02
9.000000000000000000e+00,3.972034301757812500e+02
9.039999961853027344e+00,3.974689025878906250e+02
9.079999923706054688e+00,3.977309265136718750e+02
9.119999885559082031e+00,3.980278930664062500e+02
9.159999847412109375e+00,3.985093994140625000e+02
9.199999809265136719e+00,3.989671020507812500e+02
9.239999771118164062e+00,3.994012451171875000e+02
9.279999732971191406e+00,3.998323364257812500e+02
9.319999694824218750e+00,4.002608947753906250e+02
9.359999656677246094e+00,4.006864624023437500e+02
9.399999618530273438e+00,4.010764160156250000e+02
9.439999580383300781e+00,4.014309692382812500e+02
9.479999542236328125e+00,4.017825927734375000e+02
9.519999504089355469e+00,4.021314697265625000e+02
9.560000419616699219e+00,4.024779357910156250e+02
9.600000381469726562e+00,4.026579284667968750e+02
9.640000343322753906e+00,4.027238769531250000e+02
9.680000305175781250e+00,4.029460449218750000e+02
9.720000267028808594e+00,4.031652832031250000e+02
9.760000228881835938e+00,4.033814086914062500e+02
9.800000190734863281e+00,4.032850036621093750e+02
9.840000152587890625e+00,4.028622436523437500e+02
9.880000114440917969e+00,4.023975524902343750e+02
9.920000076293945312e+00,4.019284973144531250e+02
9.960000038146972656e+00,4.022474670410156250e+02
1.000000000000000000e+01,3.987796020507812500e+02
1.003999996185302734e+01,3.909022521972656250e+02
1.007999992370605469e+01,3.829439697265625000e+02
1.011999988555908203e+01,3.749052124023437500e+02
1.015999984741210938e+01,3.667864379882812500e+02
1.019999980926513672e+01,3.572547302246093750e+02
1.023999977111816406e+01,3.573554687500000000e+02
1.027999973297119141e+01,3.574427795410156250e+02
1.032000064849853516e+01,3.575172424316406250e+02
1.036000061035156250e+01,3.575790405273437500e+02
1.040000057220458984e+01,3.590201416015625000e+02
1.044000053405761719e+01,3.613954772949218750e+02
1.048000049591064453e+01,3.623840332031250000e+02
1.052000045776367188e+01,3.633684387207031250e+02
1.056000041961669922e+01,3.643486328125000000e+02
1.060000038146972656e+01,3.646355285644531250e+02
1.064000034332275391e+01,3.642309265136718750e+02
1.068000030517578125e+01,3.638244934082031250e+02
1.072000026702880859e+01,3.634160156250000000e+02
1.076000022888183594e+01,3.630057983398437500e+02
1.080000019073486328e+01,3.624275207519531250e+02
1.084000015258789062e+01,3.616569824218750000e+02
1.088000011444091797e+01,3.608739013671875000e+02
1.092000007629394531e+01,3.600898437500000000e+02
1.096000003814697266e+01,3.593046875000000000e+02
1.100000000000000000e+01,3.583503723144531250e+02
1.103999996185302734e+01,3.572268371582031250e+02
1.107999992370605469e+01,3.561031494140625000e+02
1.111999988555908203e+01,3.562211608886718750e+02
1.115999984741210938e+01,3.563349609375000000e+02
1.119999980926513672e+01,3.557613525390625000e+02
1.123999977111816406e+01,3.544953308105468750e+02
1.127999973297119141e+01,3.532184753417968750e+02
1.131999969482421875e+01,3.519302673339843750e+02
1.136000061035156250e+01,3.506317138671875000e+02
1.140000057220458984e+01,3.475504760742187500e+02
1.144000053405761719e+01,3.426747131347656250e+02
1.148000049591064453e+01,3.377712097167968750e+02
1.152000045776367188e+01,3.325209045410156250e+02
1.156000041961669922e+01,3.172262878417968750e+02
1.160000038146972656e+01,3.132439270019531250e+02
1.164000034332275391e+01,3.121687622070312500e+02
1.168000030517578125e+01,3.110832519531250000e+02
1.172000026702880859e+01,3.099817504882812500e+02
1.176000022888183594e+01,3.088653869628906250e+02
1.180000019073486328e+01,3.076481628417968750e+02
1.184000015258789062e+01,3.063364562988281250e+02
1.188000011444091797e+01,3.050227661132812500e+02
1.192000007629394531e+01,3.036962585449218750e+02
1.196000003814697266e+01,3.023586425781250000e+02
1.200000000000000000e+01,3.008214721679687500e+02
1.203999996185302734e+01,2.990854492187500000e+02
1.207999992370605469e+01,2.978471984863281250e+02
1.211999988555908203e+01,2.980699157714843750e+02
1.215999984741210938e+01,2.982918701171875000e+02
1.219999980926513672e+01,2.984474182128906250e+02
1.223999977111816406e+01,2.985360107421875000e+02
1.227999973297119141e+01,2.986231994628906250e+02
1.231999969482421875e+01,2.987089538574218750e+02
1.236000061035156250e+01,2.987934265136718750e+02
1.240000057220458984e+01,2.987438354492187500e+02
1.244000053405761719e+01,2.985609130859375000e+02
1.248000049591064453e+01,2.983763427734375000e+02
1.252000045776367188e+01,2.981903991699218750e+02
1.256000041961669922e+01,2.980034179687500000e+02
1.260000038146972656e+01,2.977355346679687500e+02
1.264000034332275391e+01,2.973867187500000000e+02
1.268000030517578125e+01,2.970369873046875000e+02
1.272000026702880859e+01,2.966856384277343750e+02
1.276000022888183594e+01,2.963330688476562500e+02
1.280000019073486328e+01,2.959325256347656250e+02
1.284000015258789062e+01,2.954837646484375000e+02
1.288000011444091797e+01,2.950349426269531250e+02
1.292000007629394531e+01,2.945852355957031250e+02
1.296000003814697266e+01,2.941342163085937500e+02
1.300000000000000000e+01,2.934166564941406250e+02
1.303999996185302734e+01,2.924328002929687500e+02
1.307999992370605469e+01,2.914482727050781250e+02
1.311999988555908203e+01,2.904522705078125000e+02
1.315999984741210938e+01,2.894520874023437500e+02
1.319999980926513672e+01,2.883054199218750000e+02
1.323999977111816406e+01,2.870135192871093750e+02
1.327999973297119141e+01,2.852886962890625000e+02
1.331999969482421875e+01,2.806241149902343750e+02
1.335999965667724609e+01,2.788980407714843750e+02
1.340000057220458984e+01,2.776894836425781250e+02
1.344000053405761719e+01,2.769204101562500000e+02
1.348000049591064453e+01,2.761502380371093750e+02
1.352000045776367188e+01,2.753788452148437500e+02
1.356000041961669922e+01,2.746067199707031250e+02
1.360000038146972656e+01,2.737797851562500000e+02
1.364000034332275391e+01,2.728981933593750000e+02
1.368000030517578125e+01,2.720148010253906250e+02
1.372000026702880859e+01,2.711305236816406250e+02
1.376000022888183594e+01,2.702450256347656250e+02
1.380000019073486328e+01,2.692838745117187500e+02
1.384000015258789062e+01,2.671971740722656250e+02
1.388000011444091797e+01,2.660940246582031250e+02
1.392000007629394531e+01,2.655025939941406250e+02
1.396000003814697266e+01,2.649125061035156250e+02
1.400000000000000000e+01,2.643939819335937500e+02
1.403999996185302734e+01,2.639473571777343750e+02
1.407999992370605469e+01,2.634996948242187500e+02
1.411999988555908203e+01,2.630505065917968750e+02
1.415999984741210938e+01,2.626002197265625000e+02
1.419999980926513672e+01,2.621549072265625000e+02
1.423999977111816406e+01,2.617142333984375000e+02
1.427999973297119141e+01,2.612724609375000000e+02
1.431999969482421875e+01,2.608302612304687500e+02
1.435999965667724609e+01,2.603872070312500000e+02
1.439999961853027344e+01,2.599183654785156250e+02
1.444000053405761719e+01,2.594159851074218750e+02
1.448000049591064453e+01,2.589132690429687500e+02
1.452000045776367188e+01,2.584101867675781250e+02
1.456000041961669922e+01,2.579064331054687500e+02
1.460000038146972656e+01,2.573939208984375000e+02
1.464000034332275391e+01,2.568727416992187500e+02
1.468000030517578125e+01,2.563511657714843750e+02
1.472000026702880859e+01,2.558290557861328125e+02
1.476000022888183594e+01,2.553064270019531250e+02
1.480000019073486328e+01,2.547771301269531250e+02
1.484000015258789062e+01,2.542411193847656250e+02
1.488000011444091797e+01,2.537040252685546875e+02
1.492000007629394531e+01,2.531664581298828125e+02
1.496000003814697266e+01,2.526285552978515625e+02
1.500000000000000000e+01,2.520825653076171875e+02
1.503999996185302734e+01,2.515286865234375000e+02
1.507999992370605469e+01,2.509743957519531250e+02
1.511999988555908203e+01,2.504194946289062500e+02
1.515999984741210938e+01,2.498643493652343750e+02
1.519999980926513672e+01,2.492977905273437500e+02
1.523999977111816406e+01,2.487197875976562500e+02
1.527999973297119141e+01,2.481414642333984375e+02
1.531999969482421875e+01,2.475628967285156250e+02
1.535999965667724609e+01,2.469837951660156250e+02
1.539999961853027344e+01,2.463995513916015625e+02
1.544000053405761719e+01,2.458099822998046875e+02
1.548000049591064453e+01,2.452201080322265625e+02
1.552000045776367188e+01,2.446303710937500000e+02
1.556000041961669922e+01,2.440402221679687500e+02
1.560000038146972656e+01,2.434552612304687500e+02
1.564000034332275391e+01,2.428753662109375000e+02
1.568000030517578125e+01,2.422949218750000000e+02
1.572000026702880859e+01,2.418164367675781250e+02
1.576000022888183594e+01,2.413385620117187500e+02
1.580000019073486328e+01,2.408426055908203125e+02
1.584000015258789062e+01,2.403282775878906250e+02
1.588000011444091797e+01,2.398087005615234375e+02
1.592000007629394531e+01,2.392880706787109375e+02
1.596000003814697266e+01,2.387670745849609375e+02
1.600000000000000000e+01,2.382377624511718750e+02
1.603999900817871094e+01,2.377004089355468750e+02
1.607999992370605469e+01,2.371623535156250000e+02
1.611999893188476562e+01,2.366237182617187500e+02
1.615999984741210938e+01,2.360842895507812500e+02
1.619999885559082031e+01,2.355444030761718750e+02
1.623999977111816406e+01,2.350036621093750000e+02
1.627999877929687500e+01,2.344625244140625000e+02
1.631999969482421875e+01,2.339205780029296875e+02
1.635999870300292969e+01,2.333781127929687500e+02
1.639999961853027344e+01,2.328349609375000000e+02
1.643999862670898438e+01,2.322913818359375000e+02
1.647999954223632812e+01,2.317471160888671875e+02
1.652000045776367188e+01,2.311949462890625000e+02
1.655999946594238281e+01,2.306422882080078125e+02
1.660000038146972656e+01,2.300889739990234375e+02
1.663999938964843750e+01,2.295351867675781250e+02
1.668000030517578125e+01,2.289808044433593750e+02
1.671999931335449219e+01,2.284260101318359375e+02
1.676000022888183594e+01,2.278705749511718750e+02
1.679999923706054688e+01,2.273143920898437500e+02
1.684000015258789062e+01,2.267578582763671875e+02
1.687999916076660156e+01,2.262006225585937500e+02
1.692000007629394531e+01,2.256430053710937500e+02
1.695999908447265625e+01,2.250847778320312500e+02
1.700000000000000000e+01,2.245434265136718750e+02
1.703999900817871094e+01,2.240186004638671875e+02
1.707999992370605469e+01,2.234931030273437500e+02
1.711999893188476562e+01,2.229673614501953125e+02
1.715999984741210938e+01,2.224409942626953125e+02
1.719999885559082031e+01,2.219141998291015625e+02
1.723999977111816406e+01,2.213869781494140625e+02
1.727999877929687500e+01,2.208911437988281250e+02
1.731999969482421875e+01,2.204048309326171875e+02
1.735999870300292969e+01,2.199180908203125000e+02
1.739999961853027344e+01,2.194305267333984375e+02
1.743999862670898438e+01,2.189414367675781250e+02
1.747999954223632812e+01,2.184492645263671875e+02
