# Start of Energy Bin (keV), Effective Area (cm^2)
1.600000023841857910e+00,7.876936197280883789e-01
1.639999985694885254e+00,1.051969408988952637e+00
1.680000066757202148e+00,1.402779102325439453e+00
1.720000028610229492e+00,1.867930650711059570e+00
1.759999990463256836e+00,2.450133323669433594e+00
1.799999952316284180e+00,3.007480382919311523e+00
1.840000033378601074e+00,1.828115105628967285e+00
1.879999995231628418e+00,2.262403011322021484e+00
1.920000076293945312e+00,2.870003700256347656e+00
1.960000038146972656e+00,3.534220218658447266e+00
2.000000000000000000e+00,4.281002044677734375e+00
2.039999961853027344e+00,5.144510746002197266e+00
2.079999923706054688e+00,6.179241180419921875e+00
2.119999885559082031e+00,5.452009201049804688e+00
2.160000085830688477e+00,6.236289024353027344e+00
2.200000047683715820e+00,6.382400512695312500e+00
2.240000009536743164e+00,7.203926563262939453e+00
2.279999971389770508e+00,8.158311843872070312e+00
2.319999933242797852e+00,9.330644607543945312e+00
2.360000133514404297e+00,1.045159721374511719e+01
2.400000095367431641e+00,1.151171112060546875e+01
2.440000057220458984e+00,1.270855903625488281e+01
2.480000019073486328e+00,1.410791397094726562e+01
2.519999980926513672e+00,1.579774665832519531e+01
2.559999942779541016e+00,1.764007568359375000e+01
2.599999904632568359e+00,1.929121017456054688e+01
2.639999866485595703e+00,1.947823143005371094e+01
2.679999828338623047e+00,2.110968208312988281e+01
2.720000028610229492e+00,2.285914421081542969e+01
2.759999990463256836e+00,2.474417877197265625e+01
2.799999952316284180e+00,2.676520538330078125e+01
2.840000152587890625e+00,2.884484863281250000e+01
2.880000114440917969e+00,3.062880706787109375e+01
2.920000076293945312e+00,3.248943328857421875e+01
2.960000038146972656e+00,3.445602416992187500e+01
3.000000000000000000e+00,3.650752639770507812e+01
3.039999961853027344e+00,3.748887252807617188e+01
3.079999923706054688e+00,3.945920181274414062e+01
3.119999885559082031e+00,4.148931121826171875e+01
3.159999847412109375e+00,4.313286972045898438e+01
3.199999809265136719e+00,4.481860733032226562e+01
3.240000009536743164e+00,4.654846572875976562e+01
3.279999971389770508e+00,4.765170288085937500e+01
3.319999933242797852e+00,5.046442413330078125e+01
3.360000133514404297e+00,5.342320251464843750e+01
3.400000095367431641e+00,5.651778411865234375e+01
3.440000057220458984e+00,5.869718933105468750e+01
3.480000019073486328e+00,6.019158172607421875e+01
3.519999980926513672e+00,6.017634582519531250e+01
3.559999942779541016e+00,6.169184494018554688e+01
3.599999904632568359e+00,6.323675918579101562e+01
3.639999866485595703e+00,6.479524230957031250e+01
3.679999828338623047e+00,6.637229156494140625e+01
3.719999790191650391e+00,6.715486907958984375e+01
3.759999752044677734e+00,6.877368164062500000e+01
3.800000190734863281e+00,7.017765808105468750e+01
3.840000152587890625e+00,7.142133331298828125e+01
3.880000114440917969e+00,7.266646575927734375e+01
3.920000076293945312e+00,7.425959777832031250e+01
3.960000038146972656e+00,7.598697662353515625e+01
4.000000000000000000e+00,7.727046203613281250e+01
4.039999961853027344e+00,7.895268249511718750e+01
4.079999923706054688e+00,8.065422058105468750e+01
4.119999885559082031e+00,8.238111114501953125e+01
4.159999847412109375e+00,8.410591888427734375e+01
4.199999809265136719e+00,8.556680297851562500e+01
4.239999771118164062e+00,8.703424072265625000e+01
4.279999732971191406e+00,8.851187133789062500e+01
4.320000171661376953e+00,8.851551818847656250e+01
4.360000133514404297e+00,8.936035156250000000e+01
4.400000095367431641e+00,9.061674499511718750e+01
4.440000057220458984e+00,9.187702941894531250e+01
4.480000019073486328e+00,9.314521026611328125e+01
4.519999980926513672e+00,9.442031097412109375e+01
4.559999942779541016e+00,9.569664764404296875e+01
4.599999904632568359e+00,9.576130676269531250e+01
4.639999866485595703e+00,9.682461547851562500e+01
4.679999828338623047e+00,9.783529663085937500e+01
4.719999790191650391e+00,9.884442901611328125e+01
4.759999752044677734e+00,9.985355377197265625e+01
4.799999713897705078e+00,1.008598175048828125e+02
4.840000152587890625e+00,1.018609237670898438e+02
4.880000114440917969e+00,1.028598937988281250e+02
4.920000076293945312e+00,1.033435821533203125e+02
4.960000038146972656e+00,1.043367156982421875e+02
5.000000000000000000e+00,1.053023300170898438e+02
5.039999961853027344e+00,1.063021163940429688e+02
5.079999923706054688e+00,1.072116775512695312e+02
5.119999885559082031e+00,1.081261291503906250e+02
5.159999847412109375e+00,1.090377349853515625e+02
5.199999809265136719e+00,1.099446105957031250e+02
5.239999771118164062e+00,1.108476333618164062e+02
5.279999732971191406e+00,1.117493896484375000e+02
5.320000171661376953e+00,1.126485443115234375e+02
5.360000133514404297e+00,1.135466308593750000e+02
5.400000095367431641e+00,1.144416046142578125e+02
5.440000057220458984e+00,1.153326416015625000e+02
5.480000019073486328e+00,1.162224960327148438e+02
5.519999980926513672e+00,1.171106796264648438e+02
5.559999942779541016e+00,1.179203643798828125e+02
5.599999904632568359e+00,1.186476669311523438e+02
5.639999866485595703e+00,1.193716888427734375e+02
5.679999828338623047e+00,1.200932006835937500e+02
5.719999790191650391e+00,1.208148498535156250e+02
5.759999752044677734e+00,1.215339431762695312e+02
5.799999713897705078e+00,1.222403259277343750e+02
5.839999675750732422e+00,1.229345932006835938e+02
5.879999637603759766e+00,1.236266708374023438e+02
5.919999599456787109e+00,1.243103332519531250e+02
5.960000038146972656e+00,1.249916152954101562e+02
6.000000000000000000e+00,1.256298370361328125e+02
6.039999961853027344e+00,1.262240447998046875e+02
6.079999923706054688e+00,1.268153533935546875e+02
6.119999885559082031e+00,1.273516235351562500e+02
6.159999847412109375e+00,1.278461456298828125e+02
6.199999809265136719e+00,1.283422546386718750e+02
6.239999771118164062e+00,1.288397827148437500e+02
6.279999732971191406e+00,1.293344421386718750e+02
6.319999694824218750e+00,1.298253326416015625e+02
6.359999656677246094e+00,1.303132934570312500e+02
6.399999618530273438e+00,1.307951660156250000e+02
6.439999580383300781e+00,1.312711181640625000e+02
6.480000019073486328e+00,1.317441101074218750e+02
6.519999980926513672e+00,1.322151794433593750e+02
6.559999942779541016e+00,1.326835632324218750e+02
6.599999904632568359e+00,1.331462707519531250e+02
6.639999866485595703e+00,1.336032409667968750e+02
6.679999828338623047e+00,1.340578613281250000e+02
6.719999790191650391e+00,1.344866943359375000e+02
6.759999752044677734e+00,1.348583374023437500e+02
6.799999713897705078e+00,1.352209625244140625e+02
6.839999675750732422e+00,1.355748291015625000e+02
6.879999637603759766e+00,1.359263305664062500e+02
6.919999599456787109e+00,1.362742156982421875e+02
6.959999561309814453e+00,1.366196746826171875e+02
7.000000000000000000e+00,1.369306335449218750e+02
7.039999961853027344e+00,1.372066650390625000e+02
7.079999923706054688e+00,1.374809875488281250e+02
7.119999885559082031e+00,1.370204162597656250e+02
7.159999847412109375e+00,1.372805786132812500e+02
7.199999809265136719e+00,1.375455169677734375e+02
7.239999771118164062e+00,1.378152465820312500e+02
7.279999732971191406e+00,1.380828399658203125e+02
7.319999694824218750e+00,1.383559417724609375e+02
7.359999656677246094e+00,1.386267242431640625e+02
7.399999618530273438e+00,1.388893890380859375e+02
7.439999580383300781e+00,1.391437072753906250e+02
7.479999542236328125e+00,1.393963012695312500e+02
7.519999980926513672e+00,1.396403045654296875e+02
7.559999942779541016e+00,1.398823699951171875e+02
7.599999904632568359e+00,1.401141967773437500e+02
7.639999866485595703e+00,1.403356628417968750e+02
7.679999828338623047e+00,1.405551452636718750e+02
7.719999790191650391e+00,1.407726898193359375e+02
7.759999752044677734e+00,1.409886474609375000e+02
7.799999713897705078e+00,1.411918334960937500e+02
7.839999675750732422e+00,1.413820343017578125e+02
7.879999637603759766e+00,1.415706176757812500e+02
7.919999599456787109e+00,1.417583160400390625e+02
7.959999561309814453e+00,1.419442138671875000e+02
7.999999523162841797e+00,1.421023712158203125e+02
8.039999961853027344e+00,1.422325134277343750e+02
8.079999923706054688e+00,1.423610076904296875e+02
8.119999885559082031e+00,1.424895019531250000e+02
8.159999847412109375e+00,1.425796813964843750e+02
8.199999809265136719e+00,1.426431884765625000e+02
8.239999771118164062e+00,1.426995086669921875e+02
8.279999732971191406e+00,1.428133392333984375e+02
8.319999694824218750e+00,1.429240264892578125e+02
8.359999656677246094e+00,1.430332031250000000e+02
8.399999618530273438e+00,1.431127929687500000e+02
8.439999580383300781e+00,1.431627502441406250e+02
8.479999542236328125e+00,1.432108917236328125e+02
8.520000457763671875e+00,1.432749481201171875e+02
8.560000419616699219e+00,1.433373260498046875e+02
8.600000381469726562e+00,1.433725891113281250e+02
8.640000343322753906e+00,1.433806304931640625e+02
8.680000305175781250e+00,1.433868713378906250e+02
8.720000267028808594e+00,1.433740234375000000e+02
8.760000228881835938e+00,1.433596954345703125e+02
8.800000190734863281e+00,1.433214721679687500e+02
8.840000152587890625e+00,1.432592773437500000e+02
8.880000114440917969e+00,1.431956176757812500e+02
8.920000076293945312e+00,1.431340789794921875e+02
8.960000038146972656e+00,1.430510711669921875e+02
9.000000000000000000e+00,1.429335327148437500e+02
9.039999961853027344e+00,1.427923736572265625e+02
9.079999923706054688e+00,1.426495819091796875e+02
9.119999885559082031e+00,1.425364379882812500e+02
9.159999847412109375e+00,1.425036926269531250e+02
9.199999809265136719e+00,1.424449005126953125e+02
9.239999771118164062e+00,1.423601074218750000e+02
9.279999732971191406e+00,1.422732543945312500e+02
9.319999694824218750e+00,1.421676635742187500e+02
9.359999656677246094e+00,1.420600280761718750e+02
9.399999618530273438e+00,1.419219818115234375e+02
9.439999580383300781e+00,1.417536315917968750e+02
9.479999542236328125e+00,1.415833129882812500e+02
9.519999504089355469e+00,1.414286041259765625e+02
9.560000419616699219e+00,1.412720794677734375e+02
9.600000381469726562e+00,1.410475158691406250e+02
9.640000343322753906e+00,1.407678833007812500e+02
9.680000305175781250e+00,1.405250244140625000e+02
9.720000267028808594e+00,1.402717285156250000e+02
9.760000228881835938e+00,1.400164031982421875e+02
9.800000190734863281e+00,1.395437927246093750e+02
9.840000152587890625e+00,1.388498992919921875e+02
9.880000114440917969e+00,1.381417846679687500e+02
9.920000076293945312e+00,1.374395141601562500e+02
9.960000038146972656e+00,1.369990539550781250e+02
1.000000000000000000e+01,1.352200164794921875e+02
1.003999996185302734e+01,1.319150695800781250e+02
1.007999992370605469e+01,1.286067657470703125e+02
1.011999988555908203e+01,1.252887725830078125e+02
1.015999984741210938e+01,1.219691009521484375e+02
1.019999980926513672e+01,1.183256378173828125e+02
1.023999977111816406e+01,1.185622329711914062e+02
1.027999973297119141e+01,1.187942657470703125e+02
1.032000064849853516e+01,1.190196685791015625e+02
1.036000061035156250e+01,1.192407226562500000e+02
1.040000057220458984e+01,1.199156494140625000e+02
1.044000053405761719e+01,1.208101348876953125e+02
1.048000049591064453e+01,1.209778823852539062e+02
1.052000045776367188e+01,1.211512374877929688e+02
1.056000041961669922e+01,1.213208847045898438e+02
1.060000038146972656e+01,1.211691589355468750e+02
1.064000034332275391e+01,1.206983261108398438e+02
1.068000030517578125e+01,1.202270507812500000e+02
1.072000026702880859e+01,1.197406768798828125e+02
1.076000022888183594e+01,1.192539520263671875e+02
1.080000019073486328e+01,1.187052001953125000e+02
1.084000015258789062e+01,1.180870132446289062e+02
1.088000011444091797e+01,1.174658813476562500e+02
1.092000007629394531e+01,1.168544082641601562e+02
1.096000003814697266e+01,1.162435607910156250e+02
1.100000000000000000e+01,1.155752334594726562e+02
1.103999996185302734e+01,1.148500518798828125e+02
1.107999992370605469e+01,1.141265716552734375e+02
1.111999988555908203e+01,1.140338363647460938e+02
1.115999984741210938e+01,1.139400405883789062e+02
1.119999980926513672e+01,1.135766754150390625e+02
1.123999977111816406e+01,1.129434127807617188e+02
1.127999973297119141e+01,1.123088684082031250e+02
1.131999969482421875e+01,1.116699218750000000e+02
1.136000061035156250e+01,1.110299530029296875e+02
1.140000057220458984e+01,1.098502044677734375e+02
1.144000053405761719e+01,1.081294708251953125e+02
1.148000049591064453e+01,1.064055175781250000e+02
1.152000045776367188e+01,1.045890960693359375e+02
1.156000041961669922e+01,9.990773010253906250e+01
1.160000038146972656e+01,9.861158752441406250e+01
1.164000034332275391e+01,9.824980163574218750e+01
1.168000030517578125e+01,9.788507080078125000e+01
1.172000026702880859e+01,9.752038574218750000e+01
1.176000022888183594e+01,9.715151977539062500e+01
1.180000019073486328e+01,9.670741271972656250e+01
1.184000015258789062e+01,9.619066619873046875e+01
1.188000011444091797e+01,9.567418670654296875e+01
1.192000007629394531e+01,9.514978027343750000e+01
1.196000003814697266e+01,9.462297058105468750e+01
1.200000000000000000e+01,9.402514648437500000e+01
1.203999996185302734e+01,9.335696411132812500e+01
1.207999992370605469e+01,9.288561248779296875e+01
1.211999988555908203e+01,9.299467468261718750e+01
1.215999984741210938e+01,9.310326385498046875e+01
1.219999980926513672e+01,9.317024230957031250e+01
1.223999977111816406e+01,9.319540405273437500e+01
1.227999973297119141e+01,9.322013854980468750e+01
1.231999969482421875e+01,9.323655700683593750e+01
1.236000061035156250e+01,9.325254821777343750e+01
1.240000057220458984e+01,9.320835113525390625e+01
1.244000053405761719e+01,9.310419464111328125e+01
1.248000049591064453e+01,9.299958801269531250e+01
1.252000045776367188e+01,9.289473724365234375e+01
1.256000041961669922e+01,9.278963470458984375e+01
1.260000038146972656e+01,9.265070343017578125e+01
1.264000034332275391e+01,9.247790527343750000e+01
1.268000030517578125e+01,9.230506134033203125e+01
1.272000026702880859e+01,9.213171386718750000e+01
1.276000022888183594e+01,9.195822143554687500e+01
1.280000019073486328e+01,9.176300048828125000e+01
1.284000015258789062e+01,9.154602050781250000e+01
1.288000011444091797e+01,9.132928466796875000e+01
1.292000007629394531e+01,9.111231994628906250e+01
1.296000003814697266e+01,9.089524078369140625e+01
1.300000000000000000e+01,9.058681488037109375e+01
1.303999996185302734e+01,9.018743896484375000e+01
1.307999992370605469e+01,8.978854370117187500e+01
1.311999988555908203e+01,8.938803100585937500e+01
1.315999984741210938e+01,8.898690795898437500e+01
1.319999980926513672e+01,8.853444671630859375e+01
1.323999977111816406e+01,8.803127288818359375e+01
1.327999973297119141e+01,8.749711608886718750e+01
1.331999969482421875e+01,8.613900756835937500e+01
1.335999965667724609e+01,8.565805816650390625e+01
1.340000057220458984e+01,8.532346343994140625e+01
1.344000053405761719e+01,8.509870910644531250e+01
1.348000049591064453e+01,8.487352752685546875e+01
1.352000045776367188e+01,8.464550781250000000e+01
1.356000041961669922e+01,8.441724395751953125e+01
1.360000038146972656e+01,8.416040802001953125e+01
1.364000034332275391e+01,8.387508392333984375e+01
1.368000030517578125e+01,8.358930969238281250e+01
1.372000026702880859e+01,8.330245971679687500e+01
1.376000022888183594e+01,8.301530456542968750e+01
1.380000019073486328e+01,8.270584106445312500e+01
1.384000015258789062e+01,8.207627105712890625e+01
1.388000011444091797e+01,8.174676513671875000e+01
1.392000007629394531e+01,8.157002258300781250e+01
1.396000003814697266e+01,8.139367675781250000e+01
1.400000000000000000e+01,8.123353576660156250e+01
1.403999996185302734e+01,8.108977508544921875e+01
1.407999992370605469e+01,8.094573211669921875e+01
1.411999988555908203e+01,8.079939270019531250e+01
1.415999984741210938e+01,8.065273284912109375e+01
1.419999980926513672e+01,8.050395965576171875e+01
1.423999977111816406e+01,8.035292053222656250e+01
1.427999973297119141e+01,8.020156097412109375e+01
1.431999969482421875e+01,8.005129241943359375e+01
1.435999965667724609e+01,7.990077209472656250e+01
1.439999961853027344e+01,7.974133300781250000e+01
1.444000053405761719e+01,7.957055664062500000e+01
1.448000049591064453e+01,7.939970397949218750e+01
1.452000045776367188e+01,7.922962188720703125e+01
1.456000041961669922e+01,7.905937194824218750e+01
1.460000038146972656e+01,7.888729858398437500e+01
1.464000034332275391e+01,7.871350097656250000e+01
1.468000030517578125e+01,7.853960418701171875e+01
1.472000026702880859e+01,7.836378479003906250e+01
1.476000022888183594e+01,7.818784332275390625e+01
1.480000019073486328e+01,7.801067352294921875e+01
1.484000015258789062e+01,7.783228302001953125e+01
1.488000011444091797e+01,7.765362548828125000e+01
1.492000007629394531e+01,7.747618103027343750e+01
1.496000003814697266e+01,7.729867553710937500e+01
1.500000000000000000e+01,7.712136840820312500e+01
1.503999996185302734e+01,7.694432067871093750e+01
1.507999992370605469e+01,7.676715850830078125e+01
1.511999988555908203e+01,7.659085845947265625e+01
1.515999984741210938e+01,7.641452026367187500e+01
1.519999980926513672e+01,7.623602294921875000e+01
1.523999977111816406e+01,7.605532836914062500e+01
1.527999973297119141e+01,7.587456512451171875e+01
1.531999969482421875e+01,7.569118499755859375e+01
1.535999965667724609e+01,7.550761413574218750e+01
1.539999961853027344e+01,7.532495117187500000e+01
1.544000053405761719e+01,7.514305114746093750e+01
1.548000049591064453e+01,7.496105957031250000e+01
1.552000045776367188e+01,7.478608703613281250e+01
1.556000041961669922e+01,7.461096954345703125e+01
1.560000038146972656e+01,7.444070434570312500e+01
1.564000034332275391e+01,7.427521514892578125e+01
1.568000030517578125e+01,7.410949707031250000e+01
1.572000026702880859e+01,7.390769958496093750e+01
1.576000022888183594e+01,7.370546722412109375e+01
1.580000019073486328e+01,7.349974060058593750e+01
1.584000015258789062e+01,7.329040527343750000e+01
1.588000011444091797e+01,7.307971191406250000e+01
1.592000007629394531e+01,7.288100433349609375e+01
1.596000003814697266e+01,7.268243408203125000e+01
1.600000000000000000e+01,7.248408508300781250e+01
1.603999900817871094e+01,7.228607177734375000e+01
1.607999992370605469e+01,7.208799743652343750e+01
1.611999893188476562e+01,7.188008117675781250e+01
1.615999984741210938e+01,7.167212677001953125e+01
1.619999885559082031e+01,7.146427917480468750e+01
1.623999977111816406e+01,7.125640106201171875e+01
1.627999877929687500e+01,7.104863739013671875e+01
1.631999969482421875e+01,7.084674835205078125e+01
1.635999870300292969e+01,7.064491271972656250e+01
1.639999961853027344e+01,7.044303894042968750e+01
1.643999862670898438e+01,7.024122619628906250e+01
1.647999954223632812e+01,7.003942871093750000e+01
1.652000045776367188e+01,6.983633422851562500e+01
1.655999946594238281e+01,6.963330841064453125e+01
1.660000038146972656e+01,6.943021392822265625e+01
1.663999938964843750e+01,6.922721862792968750e+01
1.668000030517578125e+01,6.902423095703125000e+01
1.671999931335449219e+01,6.882121276855468750e+01
1.676000022888183594e+01,6.861817932128906250e+01
1.679999923706054688e+01,6.841510772705078125e+01
1.684000015258789062e+01,6.821215820312500000e+01
1.687999916076660156e+01,6.800915527343750000e+01
1.692000007629394531e+01,6.780580139160156250e+01
1.695999908447265625e+01,6.760242462158203125e+01
1.700000000000000000e+01,6.740133666992187500e+01
1.703999900817871094e+01,6.720245361328125000e+01
1.707999992370605469e+01,6.700357818603515625e+01
1.711999893188476562e+01,6.681052398681640625e+01
1.715999984741210938e+01,6.661744689941406250e+01
1.719999885559082031e+01,6.642442321777343750e+01
1.723999977111816406e+01,6.623146057128906250e+01
1.727999877929687500e+01,6.604663848876953125e+01
1.731999969482421875e+01,6.586429595947265625e+01
1.735999870300292969e+01,6.568199157714843750e+01
1.739999961853027344e+01,6.549965667724609375e+01
1.743999862670898438e+01,6.531700134277343750e+01
1.747999954223632812e+01,6.513362884521484375e+01
