# Start of Energy Bin (keV), Effective Area (cm^2)
1.600000023841857910e+00,1.952214717864990234e+00
1.639999985694885254e+00,2.616733312606811523e+00
1.680000066757202148e+00,3.502194643020629883e+00
1.720000028610229492e+00,4.680744171142578125e+00
1.759999990463256836e+00,6.162484169006347656e+00
1.799999952316284180e+00,7.604799270629882812e+00
1.840000033378601074e+00,4.652028083801269531e+00
1.879999995231628418e+00,5.768032073974609375e+00
1.920000076293945312e+00,7.299352169036865234e+00
1.960000038146972656e+00,8.966918945312500000e+00
2.000000000000000000e+00,1.082862186431884766e+01
2.039999961853027344e+00,1.296533203125000000e+01
2.079999923706054688e+00,1.551652526855468750e+01
2.119999885559082031e+00,1.366610717773437500e+01
2.160000085830688477e+00,1.562110519409179688e+01
2.200000047683715820e+00,1.598072242736816406e+01
2.240000009536743164e+00,1.803606605529785156e+01
2.279999971389770508e+00,2.042273521423339844e+01
2.319999933242797852e+00,2.333941268920898438e+01
2.360000133514404297e+00,2.612316894531250000e+01
2.400000095367431641e+00,2.875272941589355469e+01
2.440000057220458984e+00,3.172214317321777344e+01
2.480000019073486328e+00,3.519299316406250000e+01
2.519999980926513672e+00,3.938733291625976562e+01
2.559999942779541016e+00,4.396298217773437500e+01
2.599999904632568359e+00,4.806804275512695312e+01
2.639999866485595703e+00,4.852460861206054688e+01
2.679999828338623047e+00,5.259058761596679688e+01
2.720000028610229492e+00,5.695058441162109375e+01
2.759999990463256836e+00,6.164859771728515625e+01
2.799999952316284180e+00,6.668721771240234375e+01
2.840000152587890625e+00,7.186629486083984375e+01
2.880000114440917969e+00,7.630469512939453125e+01
2.920000076293945312e+00,8.093386840820312500e+01
2.960000038146972656e+00,8.582625579833984375e+01
3.000000000000000000e+00,9.131340026855468750e+01
3.039999961853027344e+00,9.454463958740234375e+01
3.079999923706054688e+00,1.003375701904296875e+02
3.119999885559082031e+00,1.063609619140625000e+02
3.159999847412109375e+00,1.114739151000976562e+02
3.199999809265136719e+00,1.167696990966796875e+02
3.240000009536743164e+00,1.222566375732421875e+02
3.279999971389770508e+00,1.261678848266601562e+02
3.319999933242797852e+00,1.317416381835937500e+02
3.360000133514404297e+00,1.375166320800781250e+02
3.400000095367431641e+00,1.434906311035156250e+02
3.440000057220458984e+00,1.485484619140625000e+02
3.480000019073486328e+00,1.523729553222656250e+02
3.519999980926513672e+00,1.523615570068359375e+02
3.559999942779541016e+00,1.562268066406250000e+02
3.599999904632568359e+00,1.601681518554687500e+02
3.639999866485595703e+00,1.641455230712890625e+02
3.679999828338623047e+00,1.681716766357421875e+02
3.719999790191650391e+00,1.701896514892578125e+02
3.759999752044677734e+00,1.743285522460937500e+02
3.800000190734863281e+00,1.779253234863281250e+02
3.840000152587890625e+00,1.811180419921875000e+02
3.880000114440917969e+00,1.843162078857421875e+02
3.920000076293945312e+00,1.883646697998046875e+02
3.960000038146972656e+00,1.927392272949218750e+02
4.000000000000000000e+00,1.959882202148437500e+02
4.039999961853027344e+00,2.002489929199218750e+02
4.079999923706054688e+00,2.045585174560546875e+02
4.119999885559082031e+00,2.089178771972656250e+02
4.159999847412109375e+00,2.132711181640625000e+02
4.199999809265136719e+00,2.169550628662109375e+02
4.239999771118164062e+00,2.206556549072265625e+02
4.279999732971191406e+00,2.243814697265625000e+02
4.320000171661376953e+00,2.243772277832031250e+02
4.360000133514404297e+00,2.264907073974609375e+02
4.400000095367431641e+00,2.296423339843750000e+02
4.440000057220458984e+00,2.328035888671875000e+02
4.480000019073486328e+00,2.359838562011718750e+02
4.519999980926513672e+00,2.391775512695312500e+02
4.559999942779541016e+00,2.423732910156250000e+02
4.599999904632568359e+00,2.425003356933593750e+02
4.639999866485595703e+00,2.451565246582031250e+02
4.679999828338623047e+00,2.476785736083984375e+02
4.719999790191650391e+00,2.501989288330078125e+02
4.759999752044677734e+00,2.527184753417968750e+02
4.799999713897705078e+00,2.552307586669921875e+02
4.840000152587890625e+00,2.577300109863281250e+02
4.880000114440917969e+00,2.602231140136718750e+02
4.920000076293945312e+00,2.614248352050781250e+02
4.960000038146972656e+00,2.639149169921875000e+02
5.000000000000000000e+00,2.663356628417968750e+02
5.039999961853027344e+00,2.690455627441406250e+02
5.079999923706054688e+00,2.716625976562500000e+02
5.119999885559082031e+00,2.742774047851562500e+02
5.159999847412109375e+00,2.768897399902343750e+02
5.199999809265136719e+00,2.794957275390625000e+02
5.239999771118164062e+00,2.820975646972656250e+02
5.279999732971191406e+00,2.847009887695312500e+02
5.320000171661376953e+00,2.873080749511718750e+02
5.360000133514404297e+00,2.899172973632812500e+02
5.400000095367431641e+00,2.925243530273437500e+02
5.440000057220458984e+00,2.951271972656250000e+02
5.480000019073486328e+00,2.977317810058593750e+02
5.519999980926513672e+00,3.003388977050781250e+02
5.559999942779541016e+00,3.027493591308593750e+02
5.599999904632568359e+00,3.049535827636718750e+02
5.639999866485595703e+00,3.071543579101562500e+02
5.679999828338623047e+00,3.093526916503906250e+02
5.719999790191650391e+00,3.115491027832031250e+02
5.759999752044677734e+00,3.137427062988281250e+02
5.799999713897705078e+00,3.159096069335937500e+02
5.839999675750732422e+00,3.180513000488281250e+02
5.879999637603759766e+00,3.201910400390625000e+02
5.919999599456787109e+00,3.223288879394531250e+02
5.960000038146972656e+00,3.244644165039062500e+02
6.000000000000000000e+00,3.263734130859375000e+02
6.039999961853027344e+00,3.280513916015625000e+02
6.079999923706054688e+00,3.297231445312500000e+02
6.119999885559082031e+00,3.312391357421875000e+02
6.159999847412109375e+00,3.326475219726562500e+02
6.199999809265136719e+00,3.340616455078125000e+02
6.239999771118164062e+00,3.354812011718750000e+02
6.279999732971191406e+00,3.368942260742187500e+02
6.319999694824218750e+00,3.383009948730468750e+02
6.359999656677246094e+00,3.397011108398437500e+02
6.399999618530273438e+00,3.410885620117187500e+02
6.439999580383300781e+00,3.424638061523437500e+02
6.480000019073486328e+00,3.438323364257812500e+02
6.519999980926513672e+00,3.451953735351562500e+02
6.559999942779541016e+00,3.465523681640625000e+02
6.599999904632568359e+00,3.478982238769531250e+02
6.639999866485595703e+00,3.492328186035156250e+02
6.679999828338623047e+00,3.505622863769531250e+02
6.719999790191650391e+00,3.518175964355468750e+02
6.759999752044677734e+00,3.529241027832031250e+02
6.799999713897705078e+00,3.540122680664062500e+02
6.839999675750732422e+00,3.550826416015625000e+02
6.879999637603759766e+00,3.561475830078125000e+02
6.919999599456787109e+00,3.572066955566406250e+02
6.959999561309814453e+00,3.582602539062500000e+02
7.000000000000000000e+00,3.592190856933593750e+02
7.039999961853027344e+00,3.600819396972656250e+02
7.079999923706054688e+00,3.609408874511718750e+02
7.119999885559082031e+00,3.598798522949218750e+02
7.159999847412109375e+00,3.607115783691406250e+02
7.199999809265136719e+00,3.615781860351562500e+02
7.239999771118164062e+00,3.624796752929687500e+02
7.279999732971191406e+00,3.633764038085937500e+02
7.319999694824218750e+00,3.642684020996093750e+02
7.359999656677246094e+00,3.651549987792968750e+02
7.399999618530273438e+00,3.660276794433593750e+02
7.439999580383300781e+00,3.668858947753906250e+02
7.479999542236328125e+00,3.677403564453125000e+02
7.519999980926513672e+00,3.685896606445312500e+02
7.559999942779541016e+00,3.694346618652343750e+02
7.599999904632568359e+00,3.702677612304687500e+02
7.639999866485595703e+00,3.710887145996093750e+02
7.679999828338623047e+00,3.719052734375000000e+02
7.719999790191650391e+00,3.727182617187500000e+02
7.759999752044677734e+00,3.735278625488281250e+02
7.799999713897705078e+00,3.743276062011718750e+02
7.839999675750732422e+00,3.751171264648437500e+02
7.879999637603759766e+00,3.759032592773437500e+02
7.919999599456787109e+00,3.766856384277343750e+02
7.959999561309814453e+00,3.774642028808593750e+02
7.999999523162841797e+00,3.782211914062500000e+02
8.039999961853027344e+00,3.789561767578125000e+02
8.079999923706054688e+00,3.796879882812500000e+02
8.119999885559082031e+00,3.804168701171875000e+02
8.159999847412109375e+00,3.810445861816406250e+02
8.199999809265136719e+00,3.816603698730468750e+02
8.239999771118164062e+00,3.822413635253906250e+02
8.279999732971191406e+00,3.827515258789062500e+02
8.319999694824218750e+00,3.832582702636718750e+02
8.359999656677246094e+00,3.837617492675781250e+02
8.399999618530273438e+00,3.842508544921875000e+02
8.439999580383300781e+00,3.847258911132812500e+02
8.479999542236328125e+00,3.851973266601562500e+02
8.520000457763671875e+00,3.856663818359375000e+02
8.560000419616699219e+00,3.861322021484375000e+02
8.600000381469726562e+00,3.865798339843750000e+02
8.640000343322753906e+00,3.870091552734375000e+02
8.680000305175781250e+00,3.874351806640625000e+02
8.720000267028808594e+00,3.878582458496093750e+02
8.760000228881835938e+00,3.882788696289062500e+02
8.800000190734863281e+00,3.886784057617187500e+02
8.840000152587890625e+00,3.890567626953125000e+02
8.880000114440917969e+00,3.894328918457031250e+02
8.920000076293945312e+00,3.898067932128906250e+02
8.960000038146972656e+00,3.901239624023437500e+02
9.000000000000000000e+00,3.903834838867187500e+02
9.039999961853027344e+00,3.906151733398437500e+02
9.079999923706054688e+00,3.908441162109375000e+02
9.119999885559082031e+00,3.911105346679687500e+02
9.159999847412109375e+00,3.915726318359375000e+02
9.199999809265136719e+00,3.919929199218750000e+02
9.239999771118164062e+00,3.923714294433593750e+02
9.279999732971191406e+00,3.927471923828125000e+02
9.319999694824218750e+00,3.931209411621093750e+02
9.359999656677246094e+00,3.934918518066406250e+02
9.399999618530273438e+00,3.937918395996093750e+02
9.439999580383300781e+00,3.940210876464843750e+02
9.479999542236328125e+00,3.942475891113281250e+02
9.519999504089355469e+00,3.944712829589843750e+02
9.560000419616699219e+00,3.946927490234375000e+02
9.600000381469726562e+00,3.947198181152343750e+02
9.640000343322753906e+00,3.945883178710937500e+02
9.680000305175781250e+00,3.945622863769531250e+02
9.720000267028808594e+00,3.945335083007812500e+02
9.760000228881835938e+00,3.945014953613281250e+02
9.800000190734863281e+00,3.940010681152343750e+02
9.840000152587890625e+00,3.930194396972656250e+02
9.880000114440917969e+00,3.919981079101562500e+02
9.920000076293945312e+00,3.909736328125000000e+02
9.960000038146972656e+00,3.907093505859375000e+02
1.000000000000000000e+01,3.867851867675781250e+02
1.003999996185302734e+01,3.786177978515625000e+02
1.007999992370605469e+01,3.703927001953125000e+02
1.011999988555908203e+01,3.621105957031250000e+02
1.015999984741210938e+01,3.537724304199218750e+02
1.019999980926513672e+01,3.443418884277343750e+02
1.023999977111816406e+01,3.446029663085937500e+02
1.027999973297119141e+01,3.448510131835937500e+02
1.032000064849853516e+01,3.450865478515625000e+02
1.036000061035156250e+01,3.453098144531250000e+02
1.040000057220458984e+01,3.468198547363281250e+02
1.044000053405761719e+01,3.491011657714843750e+02
1.048000049591064453e+01,3.497835693359375000e+02
1.052000045776367188e+01,3.504598999023437500e+02
1.056000041961669922e+01,3.511299743652343750e+02
1.060000038146972656e+01,3.510801696777343750e+02
1.064000034332275391e+01,3.503136901855468750e+02
1.068000030517578125e+01,3.495458679199218750e+02
1.072000026702880859e+01,3.487765808105468750e+02
1.076000022888183594e+01,3.480058288574218750e+02
1.080000019073486328e+01,3.470840759277343750e+02
1.084000015258789062e+01,3.459882812500000000e+02
1.088000011444091797e+01,3.448815612792968750e+02
1.092000007629394531e+01,3.437749023437500000e+02
1.096000003814697266e+01,3.426680908203125000e+02
1.100000000000000000e+01,3.414173583984375000e+02
1.103999996185302734e+01,3.400230712890625000e+02
1.107999992370605469e+01,3.386300048828125000e+02
1.111999988555908203e+01,3.386474609375000000e+02
1.115999984741210938e+01,3.386612548828125000e+02
1.119999980926513672e+01,3.380294799804687500e+02
1.123999977111816406e+01,3.367476806640625000e+02
1.127999973297119141e+01,3.354566040039062500e+02
1.131999969482421875e+01,3.341555786132812500e+02
1.136000061035156250e+01,3.328460083007812500e+02
1.140000057220458984e+01,3.298699951171875000e+02
1.144000053405761719e+01,3.252163696289062500e+02
1.148000049591064453e+01,3.205375976562500000e+02
1.152000045776367188e+01,3.155309448242187500e+02
1.156000041961669922e+01,3.015882263183593750e+02
1.160000038146972656e+01,2.977879028320312500e+02
1.164000034332275391e+01,2.967534179687500000e+02
1.168000030517578125e+01,2.957092895507812500e+02
1.172000026702880859e+01,2.946507873535156250e+02
1.176000022888183594e+01,2.935789794921875000e+02
1.180000019073486328e+01,2.924196472167968750e+02
1.184000015258789062e+01,2.911788940429687500e+02
1.188000011444091797e+01,2.899361877441406250e+02
1.192000007629394531e+01,2.886814270019531250e+02
1.196000003814697266e+01,2.874163818359375000e+02
1.200000000000000000e+01,2.859562377929687500e+02
1.203999996185302734e+01,2.843020324707031250e+02
1.207999992370605469e+01,2.831286926269531250e+02
1.211999988555908203e+01,2.833654785156250000e+02
1.215999984741210938e+01,2.836015625000000000e+02
1.219999980926513672e+01,2.837696533203125000e+02
1.223999977111816406e+01,2.838690795898437500e+02
1.227999973297119141e+01,2.839672546386718750e+02
1.231999969482421875e+01,2.840643615722656250e+02
1.236000061035156250e+01,2.841601867675781250e+02
1.240000057220458984e+01,2.841248168945312500e+02
1.244000053405761719e+01,2.839588012695312500e+02
1.248000049591064453e+01,2.837912292480468750e+02
1.252000045776367188e+01,2.836225585937500000e+02
1.256000041961669922e+01,2.834529418945312500e+02
1.260000038146972656e+01,2.832023010253906250e+02
1.264000034332275391e+01,2.828703002929687500e+02
1.268000030517578125e+01,2.825376281738281250e+02
1.272000026702880859e+01,2.822033996582031250e+02
1.276000022888183594e+01,2.818682556152343750e+02
1.280000019073486328e+01,2.814816284179687500e+02
1.284000015258789062e+01,2.810433959960937500e+02
1.288000011444091797e+01,2.806051635742187500e+02
1.292000007629394531e+01,2.801662292480468750e+02
1.296000003814697266e+01,2.797261962890625000e+02
1.300000000000000000e+01,2.790218811035156250e+02
1.303999996185302734e+01,2.780535888671875000e+02
1.307999992370605469e+01,2.770849914550781250e+02
1.311999988555908203e+01,2.761058654785156250e+02
1.315999984741210938e+01,2.751231079101562500e+02
1.319999980926513672e+01,2.739913635253906250e+02
1.323999977111816406e+01,2.727121582031250000e+02
1.327999973297119141e+01,2.710504760742187500e+02
1.331999969482421875e+01,2.668093261718750000e+02
1.335999965667724609e+01,2.651939086914062500e+02
1.340000057220458984e+01,2.640725708007812500e+02
1.344000053405761719e+01,2.633618164062500000e+02
1.348000049591064453e+01,2.626498718261718750e+02
1.352000045776367188e+01,2.619369201660156250e+02
1.356000041961669922e+01,2.612232971191406250e+02
1.360000038146972656e+01,2.604443359375000000e+02
1.364000034332275391e+01,2.596002502441406250e+02
1.368000030517578125e+01,2.587546081542968750e+02
1.372000026702880859e+01,2.579084472656250000e+02
1.376000022888183594e+01,2.570612182617187500e+02
1.380000019073486328e+01,2.561356811523437500e+02
1.384000015258789062e+01,2.542094879150390625e+02
1.388000011444091797e+01,2.531832580566406250e+02
1.392000007629394531e+01,2.526153717041015625e+02
1.396000003814697266e+01,2.520488433837890625e+02
1.400000000000000000e+01,2.515446624755859375e+02
1.403999996185302734e+01,2.511032562255859375e+02
1.407999992370605469e+01,2.506610412597656250e+02
1.411999988555908203e+01,2.502176513671875000e+02
1.415999984741210938e+01,2.497732696533203125e+02
1.419999980926513672e+01,2.493268432617187500e+02
1.423999977111816406e+01,2.488778839111328125e+02
1.427999973297119141e+01,2.484279937744140625e+02
1.431999969482421875e+01,2.479779205322265625e+02
1.435999965667724609e+01,2.475272064208984375e+02
1.439999961853027344e+01,2.470464935302734375e+02
1.444000053405761719e+01,2.465284271240234375e+02
1.448000049591064453e+01,2.460101776123046875e+02
1.452000045776367188e+01,2.454918823242187500e+02
1.456000041961669922e+01,2.449731445312500000e+02
1.460000038146972656e+01,2.444430236816406250e+02
1.464000034332275391e+01,2.439019165039062500e+02
1.468000030517578125e+01,2.433606109619140625e+02
1.472000026702880859e+01,2.428190917968750000e+02
1.476000022888183594e+01,2.422773132324218750e+02
1.480000019073486328e+01,2.417283020019531250e+02
1.484000015258789062e+01,2.411720428466796875e+02
1.488000011444091797e+01,2.406150665283203125e+02
1.492000007629394531e+01,2.400579071044921875e+02
1.496000003814697266e+01,2.395007019042968750e+02
1.500000000000000000e+01,2.389371185302734375e+02
1.503999996185302734e+01,2.383673706054687500e+02
1.507999992370605469e+01,2.377974853515625000e+02
1.511999988555908203e+01,2.372272033691406250e+02
1.515999984741210938e+01,2.366570129394531250e+02
1.519999980926513672e+01,2.360785675048828125e+02
1.523999977111816406e+01,2.354917144775390625e+02
1.527999973297119141e+01,2.349048004150390625e+02
1.531999969482421875e+01,2.343180084228515625e+02
1.535999965667724609e+01,2.337307586669921875e+02
1.539999961853027344e+01,2.331427154541015625e+02
1.544000053405761719e+01,2.325535125732421875e+02
1.548000049591064453e+01,2.319642028808593750e+02
1.552000045776367188e+01,2.313752441406250000e+02
1.556000041961669922e+01,2.307860717773437500e+02
1.560000038146972656e+01,2.302073211669921875e+02
1.564000034332275391e+01,2.296387481689453125e+02
1.568000030517578125e+01,2.290697631835937500e+02
1.572000026702880859e+01,2.285381469726562500e+02
1.576000022888183594e+01,2.280064697265625000e+02
1.580000019073486328e+01,2.274623107910156250e+02
1.584000015258789062e+01,2.269053192138671875e+02
1.588000011444091797e+01,2.263436431884765625e+02
1.592000007629394531e+01,2.257813262939453125e+02
1.596000003814697266e+01,2.252191772460937500e+02
1.600000000000000000e+01,2.246575622558593750e+02
1.603999900817871094e+01,2.240968475341796875e+02
1.607999992370605469e+01,2.235357360839843750e+02
1.611999893188476562e+01,2.229744110107421875e+02
1.615999984741210938e+01,2.224125823974609375e+02
1.619999885559082031e+01,2.218506622314453125e+02
1.623999977111816406e+01,2.212882385253906250e+02
1.627999877929687500e+01,2.207257537841796875e+02
1.631999969482421875e+01,2.201627807617187500e+02
1.635999870300292969e+01,2.195995941162109375e+02
1.639999961853027344e+01,2.190360260009765625e+02
1.643999862670898438e+01,2.184723358154296875e+02
1.647999954223632812e+01,2.179083557128906250e+02
1.652000045776367188e+01,2.173545227050781250e+02
1.655999946594238281e+01,2.168005371093750000e+02
1.660000038146972656e+01,2.162459411621093750e+02
1.663999938964843750e+01,2.156911926269531250e+02
1.668000030517578125e+01,2.151361541748046875e+02
1.671999931335449219e+01,2.145809326171875000e+02
1.676000022888183594e+01,2.140252685546875000e+02
1.679999923706054688e+01,2.134690551757812500e+02
1.684000015258789062e+01,2.129128570556640625e+02
1.687999916076660156e+01,2.123560485839843750e+02
1.692000007629394531e+01,2.117992553710937500e+02
1.695999908447265625e+01,2.112419433593750000e+02
1.700000000000000000e+01,2.107024841308593750e+02
1.703999900817871094e+01,2.101806030273437500e+02
1.707999992370605469e+01,2.096582031250000000e+02
1.711999893188476562e+01,2.091357421875000000e+02
1.715999984741210938e+01,2.086128540039062500e+02
1.719999885559082031e+01,2.080897216796875000e+02
1.723999977111816406e+01,2.075663757324218750e+02
1.727999877929687500e+01,2.070711059570312500e+02
1.731999969482421875e+01,2.065845794677734375e+02
1.735999870300292969e+01,2.060977172851562500e+02
1.739999961853027344e+01,2.056103515625000000e+02
1.743999862670898438e+01,2.051216125488281250e+02
1.747999954223632812e+01,2.046301879882812500e+02
