# Start of Energy Bin (keV), Effective Area (cm^2)
1.600000023841857910e+00,4.567577540874481201e-01
1.639999985694885254e+00,6.095855832099914551e-01
1.680000066757202148e+00,8.123091459274291992e-01
1.720000028610229492e+00,1.080912947654724121e+00
1.759999990463256836e+00,1.416821122169494629e+00
1.799999952316284180e+00,1.737443923950195312e+00
1.840000033378601074e+00,1.054938077926635742e+00
1.879999995231628418e+00,1.305039405822753906e+00
1.920000076293945312e+00,1.656354427337646484e+00
1.960000038146972656e+00,2.040706157684326172e+00
2.000000000000000000e+00,2.473410606384277344e+00
2.039999961853027344e+00,2.974441528320312500e+00
2.079999923706054688e+00,3.575235128402709961e+00
2.119999885559082031e+00,3.155430316925048828e+00
2.160000085830688477e+00,3.609786033630371094e+00
2.200000047683715820e+00,3.694595813751220703e+00
2.240000009536743164e+00,4.170171737670898438e+00
2.279999971389770508e+00,4.722652912139892578e+00
2.319999933242797852e+00,5.401638984680175781e+00
2.360000133514404297e+00,6.050965309143066406e+00
2.400000095367431641e+00,6.665087699890136719e+00
2.440000057220458984e+00,7.358381271362304688e+00
2.480000019073486328e+00,8.168996810913085938e+00
2.519999980926513672e+00,9.148148536682128906e+00
2.559999942779541016e+00,1.021557617187500000e+01
2.599999904632568359e+00,1.117210578918457031e+01
2.639999866485595703e+00,1.128072547912597656e+01
2.679999828338623047e+00,1.222540569305419922e+01
2.720000028610229492e+00,1.323926448822021484e+01
2.759999990463256836e+00,1.433174991607666016e+01
2.799999952316284180e+00,1.550304985046386719e+01
2.840000152587890625e+00,1.670866012573242188e+01
2.880000114440917969e+00,1.774327659606933594e+01
2.920000076293945312e+00,1.882154083251953125e+01
2.960000038146972656e+00,1.996123504638671875e+01
3.000000000000000000e+00,2.113581848144531250e+01
3.039999961853027344e+00,2.167516136169433594e+01
3.079999923706054688e+00,2.278378868103027344e+01
3.119999885559082031e+00,2.392201232910156250e+01
3.159999847412109375e+00,2.483417320251464844e+01
3.199999809265136719e+00,2.576768875122070312e+01
3.240000009536743164e+00,2.672355651855468750e+01
3.279999971389770508e+00,2.731691360473632812e+01
3.319999933242797852e+00,2.900227355957031250e+01
3.360000133514404297e+00,3.077863121032714844e+01
3.400000095367431641e+00,3.263920593261718750e+01
3.440000057220458984e+00,3.391887283325195312e+01
3.480000019073486328e+00,3.478417587280273438e+01
3.519999980926513672e+00,3.477253341674804688e+01
3.559999942779541016e+00,3.564532470703125000e+01
3.599999904632568359e+00,3.653497695922851562e+01
3.639999866485595703e+00,3.743233108520507812e+01
3.679999828338623047e+00,3.834024047851562500e+01
3.719999790191650391e+00,3.879026412963867188e+01
3.759999752044677734e+00,3.972322845458984375e+01
3.800000190734863281e+00,4.053198242187500000e+01
3.840000152587890625e+00,4.124804306030273438e+01
3.880000114440917969e+00,4.196484756469726562e+01
3.920000076293945312e+00,4.288742446899414062e+01
3.960000038146972656e+00,4.388819885253906250e+01
4.000000000000000000e+00,4.463269424438476562e+01
4.039999961853027344e+00,4.560760498046875000e+01
4.079999923706054688e+00,4.659381103515625000e+01
4.119999885559082031e+00,4.758976745605468750e+01
4.159999847412109375e+00,4.858444976806640625e+01
4.199999809265136719e+00,4.942657470703125000e+01
4.239999771118164062e+00,5.027240753173828125e+01
4.279999732971191406e+00,5.112406539916992188e+01
4.320000171661376953e+00,5.112636947631835938e+01
4.360000133514404297e+00,5.161508178710937500e+01
4.400000095367431641e+00,5.234169006347656250e+01
4.440000057220458984e+00,5.307054901123046875e+01
4.480000019073486328e+00,5.380400085449218750e+01
4.519999980926513672e+00,5.454000854492187500e+01
4.559999942779541016e+00,5.527671432495117188e+01
4.599999904632568359e+00,5.531349945068359375e+01
4.639999866485595703e+00,5.592708206176757812e+01
4.679999828338623047e+00,5.651026153564453125e+01
4.719999790191650391e+00,5.709592437744140625e+01
4.759999752044677734e+00,5.768164062500000000e+01
4.799999713897705078e+00,5.826573562622070312e+01
4.840000152587890625e+00,5.884687042236328125e+01
4.880000114440917969e+00,5.942683410644531250e+01
4.920000076293945312e+00,5.970971298217773438e+01
4.960000038146972656e+00,6.028698730468750000e+01
5.000000000000000000e+00,6.084838867187500000e+01
5.039999961853027344e+00,6.142198944091796875e+01
5.079999923706054688e+00,6.193842697143554688e+01
5.119999885559082031e+00,6.245253372192382812e+01
5.159999847412109375e+00,6.296476364135742188e+01
5.199999809265136719e+00,6.347399139404296875e+01
5.239999771118164062e+00,6.398072052001953125e+01
5.279999732971191406e+00,6.448651123046875000e+01
5.320000171661376953e+00,6.499464416503906250e+01
5.360000133514404297e+00,6.550200653076171875e+01
5.400000095367431641e+00,6.600736236572265625e+01
5.440000057220458984e+00,6.651023864746093750e+01
5.480000019073486328e+00,6.701225280761718750e+01
5.519999980926513672e+00,6.751243591308593750e+01
5.559999942779541016e+00,6.796720886230468750e+01
5.599999904632568359e+00,6.837428283691406250e+01
5.639999866485595703e+00,6.877925872802734375e+01
5.679999828338623047e+00,6.918265533447265625e+01
5.719999790191650391e+00,6.958280181884765625e+01
5.759999752044677734e+00,6.998130035400390625e+01
5.799999713897705078e+00,7.037219238281250000e+01
5.839999675750732422e+00,7.075581359863281250e+01
5.879999637603759766e+00,7.113801574707031250e+01
5.919999599456787109e+00,7.152143859863281250e+01
5.960000038146972656e+00,7.190338897705078125e+01
6.000000000000000000e+00,7.226486206054687500e+01
6.039999961853027344e+00,7.260539245605468750e+01
6.079999923706054688e+00,7.294424438476562500e+01
6.119999885559082031e+00,7.324700164794921875e+01
6.159999847412109375e+00,7.352569580078125000e+01
6.199999809265136719e+00,7.380516815185546875e+01
6.239999771118164062e+00,7.408535766601562500e+01
6.279999732971191406e+00,7.436383819580078125e+01
6.319999694824218750e+00,7.463822937011718750e+01
6.359999656677246094e+00,7.491085815429687500e+01
6.399999618530273438e+00,7.517977905273437500e+01
6.439999580383300781e+00,7.544507598876953125e+01
6.480000019073486328e+00,7.570861053466796875e+01
6.519999980926513672e+00,7.597561645507812500e+01
6.559999942779541016e+00,7.624105834960937500e+01
6.599999904632568359e+00,7.650300598144531250e+01
6.639999866485595703e+00,7.676140594482421875e+01
6.679999828338623047e+00,7.701843261718750000e+01
6.719999790191650391e+00,7.725587463378906250e+01
6.759999752044677734e+00,7.746040344238281250e+01
6.799999713897705078e+00,7.765935516357421875e+01
6.839999675750732422e+00,7.785286712646484375e+01
6.879999637603759766e+00,7.804496002197265625e+01
6.919999599456787109e+00,7.824221038818359375e+01
6.959999561309814453e+00,7.843804931640625000e+01
7.000000000000000000e+00,7.861425781250000000e+01
7.039999961853027344e+00,7.877059173583984375e+01
7.079999923706054688e+00,7.892591857910156250e+01
7.119999885559082031e+00,7.865087890625000000e+01
7.159999847412109375e+00,7.878955841064453125e+01
7.199999809265136719e+00,7.892968750000000000e+01
7.239999771118164062e+00,7.907125091552734375e+01
7.279999732971191406e+00,7.921155548095703125e+01
7.319999694824218750e+00,7.935942077636718750e+01
7.359999656677246094e+00,7.950591278076171875e+01
7.399999618530273438e+00,7.964660644531250000e+01
7.439999580383300781e+00,7.978135681152343750e+01
7.479999542236328125e+00,7.991507720947265625e+01
7.519999980926513672e+00,8.004522705078125000e+01
7.559999942779541016e+00,8.017420959472656250e+01
7.599999904632568359e+00,8.029504394531250000e+01
7.639999866485595703e+00,8.040763092041015625e+01
7.679999828338623047e+00,8.051902008056640625e+01
7.719999790191650391e+00,8.062837219238281250e+01
7.759999752044677734e+00,8.073677062988281250e+01
7.799999713897705078e+00,8.083389282226562500e+01
7.839999675750732422e+00,8.091963195800781250e+01
7.879999637603759766e+00,8.100436401367187500e+01
7.919999599456787109e+00,8.109106445312500000e+01
7.959999561309814453e+00,8.117668151855468750e+01
7.999999523162841797e+00,8.124134063720703125e+01
8.039999961853027344e+00,8.128488159179687500e+01
8.079999923706054688e+00,8.132738494873046875e+01
8.119999885559082031e+00,8.136763763427734375e+01
8.159999847412109375e+00,8.138591766357421875e+01
8.199999809265136719e+00,8.138829040527343750e+01
8.239999771118164062e+00,8.138864135742187500e+01
8.279999732971191406e+00,8.143002319335937500e+01
8.319999694824218750e+00,8.147927856445312500e+01
8.359999656677246094e+00,8.152756500244140625e+01
8.399999618530273438e+00,8.156166076660156250e+01
8.439999580383300781e+00,8.158155822753906250e+01
8.479999542236328125e+00,8.160034179687500000e+01
8.520000457763671875e+00,8.161817169189453125e+01
8.560000419616699219e+00,8.163496398925781250e+01
8.600000381469726562e+00,8.163900756835937500e+01
8.640000343322753906e+00,8.163025665283203125e+01
8.680000305175781250e+00,8.162040710449218750e+01
8.720000267028808594e+00,8.160533142089843750e+01
8.760000228881835938e+00,8.158932495117187500e+01
8.800000190734863281e+00,8.156064605712890625e+01
8.840000152587890625e+00,8.151924133300781250e+01
8.880000114440917969e+00,8.147691345214843750e+01
8.920000076293945312e+00,8.143647766113281250e+01
8.960000038146972656e+00,8.138374328613281250e+01
9.000000000000000000e+00,8.131291961669921875e+01
9.039999961853027344e+00,8.123021697998046875e+01
9.079999923706054688e+00,8.114651489257812500e+01
9.119999885559082031e+00,8.107646179199218750e+01
9.159999847412109375e+00,8.105303955078125000e+01
9.199999809265136719e+00,8.101721954345703125e+01
9.239999771118164062e+00,8.096903228759765625e+01
9.279999732971191406e+00,8.091960906982421875e+01
9.319999694824218750e+00,8.086134338378906250e+01
9.359999656677246094e+00,8.080186462402343750e+01
9.399999618530273438e+00,8.072772979736328125e+01
9.439999580383300781e+00,8.063900756835937500e+01
9.479999542236328125e+00,8.054911041259765625e+01
9.519999504089355469e+00,8.047399902343750000e+01
9.560000419616699219e+00,8.039776611328125000e+01
9.600000381469726562e+00,8.028303527832031250e+01
9.640000343322753906e+00,8.013716888427734375e+01
9.680000305175781250e+00,8.001215362548828125e+01
9.720000267028808594e+00,7.987401580810546875e+01
9.760000228881835938e+00,7.973464965820312500e+01
9.800000190734863281e+00,7.946529388427734375e+01
9.840000152587890625e+00,7.906359100341796875e+01
9.880000114440917969e+00,7.865368652343750000e+01
9.920000076293945312e+00,7.824656677246093750e+01
9.960000038146972656e+00,7.798794555664062500e+01
1.000000000000000000e+01,7.695063781738281250e+01
1.003999996185302734e+01,7.502949523925781250e+01
1.007999992370605469e+01,7.310783386230468750e+01
1.011999988555908203e+01,7.118299102783203125e+01
1.015999984741210938e+01,6.925865173339843750e+01
1.019999980926513672e+01,6.715008544921875000e+01
1.023999977111816406e+01,6.729737854003906250e+01
1.027999973297119141e+01,6.744208526611328125e+01
1.032000064849853516e+01,6.758824157714843750e+01
1.036000061035156250e+01,6.773194885253906250e+01
1.040000057220458984e+01,6.813639831542968750e+01
1.044000053405761719e+01,6.866314697265625000e+01
1.048000049591064453e+01,6.876025390625000000e+01
1.052000045776367188e+01,6.885150146484375000e+01
1.056000041961669922e+01,6.894046020507812500e+01
1.060000038146972656e+01,6.883960723876953125e+01
1.064000034332275391e+01,6.855038452148437500e+01
1.068000030517578125e+01,6.826093292236328125e+01
1.072000026702880859e+01,6.796736145019531250e+01
1.076000022888183594e+01,6.767357635498046875e+01
1.080000019073486328e+01,6.734280395507812500e+01
1.084000015258789062e+01,6.697087860107421875e+01
1.088000011444091797e+01,6.659735107421875000e+01
1.092000007629394531e+01,6.622662353515625000e+01
1.096000003814697266e+01,6.585635375976562500e+01
1.100000000000000000e+01,6.545184326171875000e+01
1.103999996185302734e+01,6.501349639892578125e+01
1.107999992370605469e+01,6.457628631591796875e+01
1.111999988555908203e+01,6.451475524902343750e+01
1.115999984741210938e+01,6.445262908935546875e+01
1.119999980926513672e+01,6.423159790039062500e+01
1.123999977111816406e+01,6.385164260864257812e+01
1.127999973297119141e+01,6.347113037109375000e+01
1.131999969482421875e+01,6.308368682861328125e+01
1.136000061035156250e+01,6.269590377807617188e+01
1.140000057220458984e+01,6.201005554199218750e+01
1.144000053405761719e+01,6.102555465698242188e+01
1.148000049591064453e+01,6.003965759277343750e+01
1.152000045776367188e+01,5.900585174560546875e+01
1.156000041961669922e+01,5.637260437011718750e+01
1.160000038146972656e+01,5.564509582519531250e+01
1.164000034332275391e+01,5.544068908691406250e+01
1.168000030517578125e+01,5.523463439941406250e+01
1.172000026702880859e+01,5.502905273437500000e+01
1.176000022888183594e+01,5.482111358642578125e+01
1.180000019073486328e+01,5.456505584716796875e+01
1.184000015258789062e+01,5.426239013671875000e+01
1.188000011444091797e+01,5.395997619628906250e+01
1.192000007629394531e+01,5.365494537353515625e+01
1.196000003814697266e+01,5.334863281250000000e+01
1.200000000000000000e+01,5.300284576416015625e+01
1.203999996185302734e+01,5.261798095703125000e+01
1.207999992370605469e+01,5.234771728515625000e+01
1.211999988555908203e+01,5.241249084472656250e+01
1.215999984741210938e+01,5.247700500488281250e+01
1.219999980926513672e+01,5.251661300659179688e+01
1.223999977111816406e+01,5.253116607666015625e+01
1.227999973297119141e+01,5.254548645019531250e+01
1.231999969482421875e+01,5.255371093750000000e+01
1.236000061035156250e+01,5.256168365478515625e+01
1.240000057220458984e+01,5.253487396240234375e+01
1.244000053405761719e+01,5.247341537475585938e+01
1.248000049591064453e+01,5.241170501708984375e+01
1.252000045776367188e+01,5.235421752929687500e+01
1.256000041961669922e+01,5.229657745361328125e+01
1.260000038146972656e+01,5.222004699707031250e+01
1.264000034332275391e+01,5.212461471557617188e+01
1.268000030517578125e+01,5.202912902832031250e+01
1.272000026702880859e+01,5.192661666870117188e+01
1.276000022888183594e+01,5.182402801513671875e+01
1.280000019073486328e+01,5.170974731445312500e+01
1.284000015258789062e+01,5.158375549316406250e+01
1.288000011444091797e+01,5.145791625976562500e+01
1.292000007629394531e+01,5.133788299560546875e+01
1.296000003814697266e+01,5.121777343750000000e+01
1.300000000000000000e+01,5.104801177978515625e+01
1.303999996185302734e+01,5.082876586914062500e+01
1.307999992370605469e+01,5.060975646972656250e+01
1.311999988555908203e+01,5.038653564453125000e+01
1.315999984741210938e+01,5.016296768188476562e+01
1.319999980926513672e+01,4.991142272949218750e+01
1.323999977111816406e+01,4.963224029541015625e+01
1.327999973297119141e+01,4.933445739746093750e+01
1.331999969482421875e+01,4.857062911987304688e+01
1.335999965667724609e+01,4.830429077148437500e+01
1.340000057220458984e+01,4.811975479125976562e+01
1.344000053405761719e+01,4.799546432495117188e+01
1.348000049591064453e+01,4.787092208862304688e+01
1.352000045776367188e+01,4.774445724487304688e+01
1.356000041961669922e+01,4.761783599853515625e+01
1.360000038146972656e+01,4.747566986083984375e+01
1.364000034332275391e+01,4.731801605224609375e+01
1.368000030517578125e+01,4.716007614135742188e+01
1.372000026702880859e+01,4.700750732421875000e+01
1.376000022888183594e+01,4.685470581054687500e+01
1.380000019073486328e+01,4.668958282470703125e+01
1.384000015258789062e+01,4.634397888183593750e+01
1.388000011444091797e+01,4.616535949707031250e+01
1.392000007629394531e+01,4.606460571289062500e+01
1.396000003814697266e+01,4.596406936645507812e+01
1.400000000000000000e+01,4.587250518798828125e+01
1.403999996185302734e+01,4.579001617431640625e+01
1.407999992370605469e+01,4.570736694335937500e+01
1.411999988555908203e+01,4.562694549560546875e+01
1.415999984741210938e+01,4.554632949829101562e+01
1.419999980926513672e+01,4.546461486816406250e+01
1.423999977111816406e+01,4.538172149658203125e+01
1.427999973297119141e+01,4.529863739013671875e+01
1.431999969482421875e+01,4.521550750732421875e+01
1.435999965667724609e+01,4.513224792480468750e+01
1.439999961853027344e+01,4.504396820068359375e+01
1.444000053405761719e+01,4.494931793212890625e+01
1.448000049591064453e+01,4.485461425781250000e+01
1.452000045776367188e+01,4.476008605957031250e+01
1.456000041961669922e+01,4.466547012329101562e+01
1.460000038146972656e+01,4.456982803344726562e+01
1.464000034332275391e+01,4.447323608398437500e+01
1.468000030517578125e+01,4.437657928466796875e+01
1.472000026702880859e+01,4.428235626220703125e+01
1.476000022888183594e+01,4.418804931640625000e+01
1.480000019073486328e+01,4.409294891357421875e+01
1.484000015258789062e+01,4.399704742431640625e+01
1.488000011444091797e+01,4.390097808837890625e+01
1.492000007629394531e+01,4.380278778076171875e+01
1.496000003814697266e+01,4.370454788208007812e+01
1.500000000000000000e+01,4.360644912719726562e+01
1.503999996185302734e+01,4.350851440429687500e+01
1.507999992370605469e+01,4.341051483154296875e+01
1.511999988555908203e+01,4.331202697753906250e+01
1.515999984741210938e+01,4.321351623535156250e+01
1.519999980926513672e+01,4.311364746093750000e+01
1.523999977111816406e+01,4.301239395141601562e+01
1.527999973297119141e+01,4.291109085083007812e+01
1.531999969482421875e+01,4.281263732910156250e+01
1.535999965667724609e+01,4.271405029296875000e+01
1.539999961853027344e+01,4.261585998535156250e+01
1.544000053405761719e+01,4.251799011230468750e+01
1.548000049591064453e+01,4.242003631591796875e+01
1.552000045776367188e+01,4.232180404663085938e+01
1.556000041961669922e+01,4.222348403930664062e+01
1.560000038146972656e+01,4.212780761718750000e+01
1.564000034332275391e+01,4.203471755981445312e+01
1.568000030517578125e+01,4.194149780273437500e+01
1.572000026702880859e+01,4.183118057250976562e+01
1.576000022888183594e+01,4.172053527832031250e+01
1.580000019073486328e+01,4.160771942138671875e+01
1.584000015258789062e+01,4.149266815185546875e+01
1.588000011444091797e+01,4.137681961059570312e+01
1.592000007629394531e+01,4.125778579711914062e+01
1.596000003814697266e+01,4.113886260986328125e+01
1.600000000000000000e+01,4.101973724365234375e+01
1.603999900817871094e+01,4.090048599243164062e+01
1.607999992370605469e+01,4.078124237060546875e+01
1.611999893188476562e+01,4.065784454345703125e+01
1.615999984741210938e+01,4.053446197509765625e+01
1.619999885559082031e+01,4.041117095947265625e+01
1.623999977111816406e+01,4.028788757324218750e+01
1.627999877929687500e+01,4.016470336914062500e+01
1.631999969482421875e+01,4.005136489868164062e+01
1.635999870300292969e+01,3.993803787231445312e+01
1.639999961853027344e+01,3.982468795776367188e+01
1.643999862670898438e+01,3.971136093139648438e+01
1.647999954223632812e+01,3.959803771972656250e+01
1.652000045776367188e+01,3.948153305053710938e+01
1.655999946594238281e+01,3.936507415771484375e+01
1.660000038146972656e+01,3.924858093261718750e+01
1.663999938964843750e+01,3.913214874267578125e+01
1.668000030517578125e+01,3.901573181152343750e+01
1.671999931335449219e+01,3.889988327026367188e+01
1.676000022888183594e+01,3.878403091430664062e+01
1.679999923706054688e+01,3.866815948486328125e+01
1.684000015258789062e+01,3.855235671997070312e+01
1.687999916076660156e+01,3.843652343750000000e+01
1.692000007629394531e+01,3.832217788696289062e+01
1.695999908447265625e+01,3.820781326293945312e+01
1.700000000000000000e+01,3.809481811523437500e+01
1.703999900817871094e+01,3.798316192626953125e+01
1.707999992370605469e+01,3.787149810791015625e+01
1.711999893188476562e+01,3.775592803955078125e+01
1.715999984741210938e+01,3.764038085937500000e+01
1.719999885559082031e+01,3.752490234375000000e+01
1.723999977111816406e+01,3.740948486328125000e+01
1.727999877929687500e+01,3.729861450195312500e+01
1.731999969482421875e+01,3.719320678710937500e+01
1.735999870300292969e+01,3.708782958984375000e+01
1.739999961853027344e+01,3.698244476318359375e+01
1.743999862670898438e+01,3.687688827514648438e+01
1.747999954223632812e+01,3.677093887329101562e+01
