# Start of Energy Bin (keV), Effective Area (cm^2)
1.600000023841857910e+00,1.046547770500183105e+00
1.639999985694885254e+00,1.424180507659912109e+00
1.680000066757202148e+00,1.932939410209655762e+00
1.720000028610229492e+00,2.617017269134521484e+00
1.759999990463256836e+00,3.487086296081542969e+00
1.799999952316284180e+00,4.351099014282226562e+00
1.840000033378601074e+00,2.688984394073486328e+00
1.879999995231628418e+00,3.366655349731445312e+00
1.920000076293945312e+00,4.300294876098632812e+00
1.960000038146972656e+00,5.328928947448730469e+00
2.000000000000000000e+00,6.488440036773681641e+00
2.039999961853027344e+00,7.829111576080322266e+00
2.079999923706054688e+00,9.437698364257812500e+00
2.119999885559082031e+00,8.343954086303710938e+00
2.160000085830688477e+00,9.597728729248046875e+00
2.200000047683715820e+00,9.874328613281250000e+00
2.240000009536743164e+00,1.120626258850097656e+01
2.279999971389770508e+00,1.275566005706787109e+01
2.319999933242797852e+00,1.464972305297851562e+01
2.360000133514404297e+00,1.647385406494140625e+01
2.400000095367431641e+00,1.821226692199707031e+01
2.440000057220458984e+00,2.017711830139160156e+01
2.480000019073486328e+00,2.247364807128906250e+01
2.519999980926513672e+00,2.524675559997558594e+01
2.559999942779541016e+00,2.828022956848144531e+01
2.599999904632568359e+00,3.102520751953125000e+01
2.639999866485595703e+00,3.141905784606933594e+01
2.679999828338623047e+00,3.415414810180664062e+01
2.720000028610229492e+00,3.709145355224609375e+01
2.759999990463256836e+00,4.026068878173828125e+01
2.799999952316284180e+00,4.366472625732421875e+01
2.840000152587890625e+00,4.717310333251953125e+01
2.880000114440917969e+00,5.020574569702148438e+01
2.920000076293945312e+00,5.337293243408203125e+01
2.960000038146972656e+00,5.672273635864257812e+01
3.000000000000000000e+00,6.045194625854492188e+01
3.039999961853027344e+00,6.266250991821289062e+01
3.079999923706054688e+00,6.657780456542968750e+01
3.119999885559082031e+00,7.065058135986328125e+01
3.159999847412109375e+00,7.412161254882812500e+01
3.199999809265136719e+00,7.771598052978515625e+01
3.240000009536743164e+00,8.143954467773437500e+01
3.279999971389770508e+00,8.410867309570312500e+01
3.319999933242797852e+00,8.806475830078125000e+01
3.360000133514404297e+00,9.217265319824218750e+01
3.400000095367431641e+00,9.642938232421875000e+01
3.440000057220458984e+00,9.998898315429687500e+01
3.480000019073486328e+00,1.026903915405273438e+02
3.519999980926513672e+00,9.944519042968750000e+01
3.559999942779541016e+00,1.021305465698242188e+02
3.599999904632568359e+00,1.049097366333007812e+02
3.639999866485595703e+00,1.077233352661132812e+02
3.679999828338623047e+00,1.105758819580078125e+02
3.719999790191650391e+00,1.103472290039062500e+02
3.759999752044677734e+00,1.132826004028320312e+02
3.800000190734863281e+00,1.158545608520507812e+02
3.840000152587890625e+00,1.181730346679687500e+02
3.880000114440917969e+00,1.204957351684570312e+02
3.920000076293945312e+00,1.233793106079101562e+02
3.960000038146972656e+00,1.264783935546875000e+02
4.000000000000000000e+00,1.279187469482421875e+02
4.039999961853027344e+00,1.309428863525390625e+02
4.079999923706054688e+00,1.339999542236328125e+02
4.119999885559082031e+00,1.370905914306640625e+02
4.159999847412109375e+00,1.401796722412109375e+02
4.199999809265136719e+00,1.428303527832031250e+02
4.239999771118164062e+00,1.454933166503906250e+02
4.279999732971191406e+00,1.481753997802734375e+02
4.320000171661376953e+00,1.451953582763671875e+02
4.360000133514404297e+00,1.458332519531250000e+02
4.400000095367431641e+00,1.481480560302734375e+02
4.440000057220458984e+00,1.504744720458984375e+02
4.480000019073486328e+00,1.528246154785156250e+02
4.519999980926513672e+00,1.551879577636718750e+02
4.559999942779541016e+00,1.575465698242187500e+02
4.599999904632568359e+00,1.556817626953125000e+02
4.639999866485595703e+00,1.578104248046875000e+02
4.679999828338623047e+00,1.597396240234375000e+02
4.719999790191650391e+00,1.616682281494140625e+02
4.759999752044677734e+00,1.635958862304687500e+02
4.799999713897705078e+00,1.655222320556640625e+02
4.840000152587890625e+00,1.674375457763671875e+02
4.880000114440917969e+00,1.693473358154296875e+02
4.920000076293945312e+00,1.693212890625000000e+02
4.960000038146972656e+00,1.712259063720703125e+02
5.000000000000000000e+00,1.730833129882812500e+02
5.039999961853027344e+00,1.751142272949218750e+02
5.079999923706054688e+00,1.770737457275390625e+02
5.119999885559082031e+00,1.790282592773437500e+02
5.159999847412109375e+00,1.809788513183593750e+02
5.199999809265136719e+00,1.829233398437500000e+02
5.239999771118164062e+00,1.848634185791015625e+02
5.279999732971191406e+00,1.868040313720703125e+02
5.320000171661376953e+00,1.887440795898437500e+02
5.360000133514404297e+00,1.906845855712890625e+02
5.400000095367431641e+00,1.926222381591796875e+02
5.440000057220458984e+00,1.945550842285156250e+02
5.480000019073486328e+00,1.964869689941406250e+02
5.519999980926513672e+00,1.984203033447265625e+02
5.559999942779541016e+00,2.002220001220703125e+02
5.599999904632568359e+00,2.018846282958984375e+02
5.639999866485595703e+00,2.035427246093750000e+02
5.679999828338623047e+00,2.051970977783203125e+02
5.719999790191650391e+00,2.068463745117187500e+02
5.759999752044677734e+00,2.084920349121093750e+02
5.799999713897705078e+00,2.101180419921875000e+02
5.839999675750732422e+00,2.117255706787109375e+02
5.879999637603759766e+00,2.133293151855468750e+02
5.919999599456787109e+00,2.149317474365234375e+02
5.960000038146972656e+00,2.165302734375000000e+02
6.000000000000000000e+00,2.179823913574218750e+02
6.039999961853027344e+00,2.192850036621093750e+02
6.079999923706054688e+00,2.205811157226562500e+02
6.119999885559082031e+00,2.217680969238281250e+02
6.159999847412109375e+00,2.228803558349609375e+02
6.199999809265136719e+00,2.239938201904296875e+02
6.239999771118164062e+00,2.251090850830078125e+02
6.279999732971191406e+00,2.262176513671875000e+02
6.319999694824218750e+00,2.273223876953125000e+02
6.359999656677246094e+00,2.284204559326171875e+02
6.399999618530273438e+00,2.295077056884765625e+02
6.439999580383300781e+00,2.305844116210937500e+02
6.480000019073486328e+00,2.316548767089843750e+02
6.519999980926513672e+00,2.327168273925781250e+02
6.559999942779541016e+00,2.337728729248046875e+02
6.599999904632568359e+00,2.348191528320312500e+02
6.639999866485595703e+00,2.358557586669921875e+02
6.679999828338623047e+00,2.368868103027343750e+02
6.719999790191650391e+00,2.378685302734375000e+02
6.759999752044677734e+00,2.387474060058593750e+02
6.799999713897705078e+00,2.396118011474609375e+02
6.839999675750732422e+00,2.404623107910156250e+02
6.879999637603759766e+00,2.413070983886718750e+02
6.919999599456787109e+00,2.421452331542968750e+02
6.959999561309814453e+00,2.429778289794921875e+02
7.000000000000000000e+00,2.437378082275390625e+02
7.039999961853027344e+00,2.444243774414062500e+02
7.079999923706054688e+00,2.451066284179687500e+02
7.119999885559082031e+00,2.444826202392578125e+02
7.159999847412109375e+00,2.451419219970703125e+02
7.199999809265136719e+00,2.458214569091796875e+02
7.239999771118164062e+00,2.465220947265625000e+02
7.279999732971191406e+00,2.472177581787109375e+02
7.319999694824218750e+00,2.479083557128906250e+02
7.359999656677246094e+00,2.485937652587890625e+02
7.399999618530273438e+00,2.492680358886718750e+02
7.439999580383300781e+00,2.499312133789062500e+02
7.479999542236328125e+00,2.505898284912109375e+02
7.519999980926513672e+00,2.512434997558593750e+02
7.559999942779541016e+00,2.518925476074218750e+02
7.599999904632568359e+00,2.525320281982421875e+02
7.639999866485595703e+00,2.531614379882812500e+02
7.679999828338623047e+00,2.537867736816406250e+02
7.719999790191650391e+00,2.544080200195312500e+02
7.759999752044677734e+00,2.550257110595703125e+02
7.799999713897705078e+00,2.556355438232421875e+02
7.839999675750732422e+00,2.562367858886718750e+02
7.879999637603759766e+00,2.568341369628906250e+02
7.919999599456787109e+00,2.574279174804687500e+02
7.959999561309814453e+00,2.580178527832031250e+02
7.999999523162841797e+00,2.585978393554687500e+02
8.039999961853027344e+00,2.591682739257812500e+02
8.079999923706054688e+00,2.597353515625000000e+02
8.119999885559082031e+00,2.602989807128906250e+02
8.159999847412109375e+00,2.607926635742187500e+02
8.199999809265136719e+00,2.612761535644531250e+02
8.239999771118164062e+00,2.617388916015625000e+02
8.279999732971191406e+00,2.621658325195312500e+02
8.319999694824218750e+00,2.625893554687500000e+02
8.359999656677246094e+00,2.630096130371093750e+02
8.399999618530273438e+00,2.634183654785156250e+02
8.439999580383300781e+00,2.638161926269531250e+02
8.479999542236328125e+00,2.642108764648437500e+02
8.520000457763671875e+00,2.646027526855468750e+02
8.560000419616699219e+00,2.649914550781250000e+02
8.600000381469726562e+00,2.653654479980468750e+02
8.640000343322753906e+00,2.657244262695312500e+02
8.680000305175781250e+00,2.660803833007812500e+02
8.720000267028808594e+00,2.664331970214843750e+02
8.760000228881835938e+00,2.667831115722656250e+02
8.800000190734863281e+00,2.671155700683593750e+02
8.840000152587890625e+00,2.674305114746093750e+02
8.880000114440917969e+00,2.677425537109375000e+02
8.920000076293945312e+00,2.680525512695312500e+02
8.960000038146972656e+00,2.683225402832031250e+02
9.000000000000000000e+00,2.685477905273437500e+02
9.039999961853027344e+00,2.687490234375000000e+02
9.079999923706054688e+00,2.689474792480468750e+02
9.119999885559082031e+00,2.691715698242187500e+02
9.159999847412109375e+00,2.695311584472656250e+02
9.199999809265136719e+00,2.698539428710937500e+02
9.239999771118164062e+00,2.701398620605468750e+02
9.279999732971191406e+00,2.704232482910156250e+02
9.319999694824218750e+00,2.707042236328125000e+02
9.359999656677246094e+00,2.709826965332031250e+02
9.399999618530273438e+00,2.712019042968750000e+02
9.439999580383300781e+00,2.713618774414062500e+02
9.479999542236328125e+00,2.715191040039062500e+02
9.519999504089355469e+00,2.716737670898437500e+02
9.560000419616699219e+00,2.718260498046875000e+02
9.600000381469726562e+00,2.717742004394531250e+02
9.640000343322753906e+00,2.715751037597656250e+02
9.680000305175781250e+00,2.715457763671875000e+02
9.720000267028808594e+00,2.715137939453125000e+02
9.760000228881835938e+00,2.714790344238281250e+02
9.800000190734863281e+00,2.711055603027343750e+02
9.840000152587890625e+00,2.703850402832031250e+02
9.880000114440917969e+00,2.696364440917968750e+02
9.920000076293945312e+00,2.688851928710937500e+02
9.960000038146972656e+00,2.686547851562500000e+02
1.000000000000000000e+01,2.659229431152343750e+02
1.003999996185302734e+01,2.602897338867187500e+02
1.007999992370605469e+01,2.546168060302734375e+02
1.011999988555908203e+01,2.489226379394531250e+02
1.015999984741210938e+01,2.431890411376953125e+02
1.019999980926513672e+01,2.367267761230468750e+02
1.023999977111816406e+01,2.369834136962890625e+02
1.027999973297119141e+01,2.372307586669921875e+02
1.032000064849853516e+01,2.374552001953125000e+02
1.036000061035156250e+01,2.376707763671875000e+02
1.040000057220458984e+01,2.387662963867187500e+02
1.044000053405761719e+01,2.403774108886718750e+02
1.048000049591064453e+01,2.408557739257812500e+02
1.052000045776367188e+01,2.413261718750000000e+02
1.056000041961669922e+01,2.417919464111328125e+02
1.060000038146972656e+01,2.417525482177734375e+02
1.064000034332275391e+01,2.412109222412109375e+02
1.068000030517578125e+01,2.406677703857421875e+02
1.072000026702880859e+01,2.401227111816406250e+02
1.076000022888183594e+01,2.395764465332031250e+02
1.080000019073486328e+01,2.389256286621093750e+02
1.084000015258789062e+01,2.381549072265625000e+02
1.088000011444091797e+01,2.373761749267578125e+02
1.092000007629394531e+01,2.365974273681640625e+02
1.096000003814697266e+01,2.358184814453125000e+02
1.100000000000000000e+01,2.349409332275390625e+02
1.103999996185302734e+01,2.339650115966796875e+02
1.107999992370605469e+01,2.329898071289062500e+02
1.111999988555908203e+01,2.330125732421875000e+02
1.115999984741210938e+01,2.330326385498046875e+02
1.119999980926513672e+01,2.326065979003906250e+02
1.123999977111816406e+01,2.317316436767578125e+02
1.127999973297119141e+01,2.308498992919921875e+02
1.131999969482421875e+01,2.299612121582031250e+02
1.136000061035156250e+01,2.290660095214843750e+02
1.140000057220458984e+01,2.270274963378906250e+02
1.144000053405761719e+01,2.238376159667968750e+02
1.148000049591064453e+01,2.206298065185546875e+02
1.152000045776367188e+01,2.172041168212890625e+02
1.156000041961669922e+01,2.075609436035156250e+02
1.160000038146972656e+01,2.049701385498046875e+02
1.164000034332275391e+01,2.042845458984375000e+02
1.168000030517578125e+01,2.035922241210937500e+02
1.172000026702880859e+01,2.028826904296875000e+02
1.176000022888183594e+01,2.021634826660156250e+02
1.180000019073486328e+01,2.013833465576171875e+02
1.184000015258789062e+01,2.005460662841796875e+02
1.188000011444091797e+01,1.997073059082031250e+02
1.192000007629394531e+01,1.988674468994140625e+02
1.196000003814697266e+01,1.980198974609375000e+02
1.200000000000000000e+01,1.970365295410156250e+02
1.203999996185302734e+01,1.959176330566406250e+02
1.207999992370605469e+01,1.951319885253906250e+02
1.211999988555908203e+01,1.953167114257812500e+02
1.215999984741210938e+01,1.955008239746093750e+02
1.219999980926513672e+01,1.956364440917968750e+02
1.223999977111816406e+01,1.957233428955078125e+02
1.227999973297119141e+01,1.958093261718750000e+02
1.231999969482421875e+01,1.958941650390625000e+02
1.236000061035156250e+01,1.959782562255859375e+02
1.240000057220458984e+01,1.959701843261718750e+02
1.244000053405761719e+01,1.958705139160156250e+02
1.248000049591064453e+01,1.957697296142578125e+02
1.252000045776367188e+01,1.956677856445312500e+02
1.256000041961669922e+01,1.955651397705078125e+02
1.260000038146972656e+01,1.954050598144531250e+02
1.264000034332275391e+01,1.951877136230468750e+02
1.268000030517578125e+01,1.949696044921875000e+02
1.272000026702880859e+01,1.947506256103515625e+02
1.276000022888183594e+01,1.945306549072265625e+02
1.280000019073486328e+01,1.942736511230468750e+02
1.284000015258789062e+01,1.939794616699218750e+02
1.288000011444091797e+01,1.936851196289062500e+02
1.292000007629394531e+01,1.933898925781250000e+02
1.296000003814697266e+01,1.930938415527343750e+02
1.300000000000000000e+01,1.926125488281250000e+02
1.303999996185302734e+01,1.919461669921875000e+02
1.307999992370605469e+01,1.912794494628906250e+02
1.311999988555908203e+01,1.906053161621093750e+02
1.315999984741210938e+01,1.899284515380859375e+02
1.319999980926513672e+01,1.891464538574218750e+02
1.323999977111816406e+01,1.882600402832031250e+02
1.327999973297119141e+01,1.871177673339843750e+02
1.331999969482421875e+01,1.841709899902343750e+02
1.335999965667724609e+01,1.830664215087890625e+02
1.340000057220458984e+01,1.823039398193359375e+02
1.344000053405761719e+01,1.818232116699218750e+02
1.348000049591064453e+01,1.813416900634765625e+02
1.352000045776367188e+01,1.808592376708984375e+02
1.356000041961669922e+01,1.803761444091796875e+02
1.360000038146972656e+01,1.798451385498046875e+02
1.364000034332275391e+01,1.792666015625000000e+02
1.368000030517578125e+01,1.786868286132812500e+02
1.372000026702880859e+01,1.781059570312500000e+02
1.376000022888183594e+01,1.775243072509765625e+02
1.380000019073486328e+01,1.768874359130859375e+02
1.384000015258789062e+01,1.755500640869140625e+02
1.388000011444091797e+01,1.748426818847656250e+02
1.392000007629394531e+01,1.744566650390625000e+02
1.396000003814697266e+01,1.740712280273437500e+02
1.400000000000000000e+01,1.737281799316406250e+02
1.403999996185302734e+01,1.734274597167968750e+02
1.407999992370605469e+01,1.731260986328125000e+02
1.411999988555908203e+01,1.728233337402343750e+02
1.415999984741210938e+01,1.725199737548828125e+02
1.419999980926513672e+01,1.722141418457031250e+02
1.423999977111816406e+01,1.719057617187500000e+02
1.427999973297119141e+01,1.715968170166015625e+02
1.431999969482421875e+01,1.712880859375000000e+02
1.435999965667724609e+01,1.709789276123046875e+02
1.439999961853027344e+01,1.706486358642578125e+02
1.444000053405761719e+01,1.702921447753906250e+02
1.448000049591064453e+01,1.699355926513671875e+02
1.452000045776367188e+01,1.695797424316406250e+02
1.456000041961669922e+01,1.692235717773437500e+02
1.460000038146972656e+01,1.688597717285156250e+02
1.464000034332275391e+01,1.684882812500000000e+02
1.468000030517578125e+01,1.681166381835937500e+02
1.472000026702880859e+01,1.677421112060546875e+02
1.476000022888183594e+01,1.673673400878906250e+02
1.480000019073486328e+01,1.669878082275390625e+02
1.484000015258789062e+01,1.666034088134765625e+02
1.488000011444091797e+01,1.662184295654296875e+02
1.492000007629394531e+01,1.658344421386718750e+02
1.496000003814697266e+01,1.654503479003906250e+02
1.500000000000000000e+01,1.650621643066406250e+02
1.503999996185302734e+01,1.646699981689453125e+02
1.507999992370605469e+01,1.642776794433593750e+02
1.511999988555908203e+01,1.638865203857421875e+02
1.515999984741210938e+01,1.634952545166015625e+02
1.519999980926513672e+01,1.630983886718750000e+02
1.523999977111816406e+01,1.626958923339843750e+02
1.527999973297119141e+01,1.622932891845703125e+02
1.531999969482421875e+01,1.618937988281250000e+02
1.535999965667724609e+01,1.614941406250000000e+02
1.539999961853027344e+01,1.610939788818359375e+02
1.544000053405761719e+01,1.606932373046875000e+02
1.548000049591064453e+01,1.602924194335937500e+02
1.552000045776367188e+01,1.598923950195312500e+02
1.556000041961669922e+01,1.594921569824218750e+02
1.560000038146972656e+01,1.590994873046875000e+02
1.564000034332275391e+01,1.587142639160156250e+02
1.568000030517578125e+01,1.583288879394531250e+02
1.572000026702880859e+01,1.579519653320312500e+02
1.576000022888183594e+01,1.575750732421875000e+02
1.580000019073486328e+01,1.571896972656250000e+02
1.584000015258789062e+01,1.567957611083984375e+02
1.588000011444091797e+01,1.563986816406250000e+02
1.592000007629394531e+01,1.560040893554687500e+02
1.596000003814697266e+01,1.556092987060546875e+02
1.600000000000000000e+01,1.552156524658203125e+02
1.603999900817871094e+01,1.548230895996093750e+02
1.607999992370605469e+01,1.544302978515625000e+02
1.611999893188476562e+01,1.540408020019531250e+02
1.615999984741210938e+01,1.536510314941406250e+02
1.619999885559082031e+01,1.532610626220703125e+02
1.623999977111816406e+01,1.528707427978515625e+02
1.627999877929687500e+01,1.524803009033203125e+02
1.631999969482421875e+01,1.520947265625000000e+02
1.635999870300292969e+01,1.517089080810546875e+02
1.639999961853027344e+01,1.513228607177734375e+02
1.643999862670898438e+01,1.509366455078125000e+02
1.647999954223632812e+01,1.505500640869140625e+02
1.652000045776367188e+01,1.501599426269531250e+02
1.655999946594238281e+01,1.497696533203125000e+02
1.660000038146972656e+01,1.493791198730468750e+02
1.663999938964843750e+01,1.489883880615234375e+02
1.668000030517578125e+01,1.485974121093750000e+02
1.671999931335449219e+01,1.482201538085937500e+02
1.676000022888183594e+01,1.478426208496093750e+02
1.679999923706054688e+01,1.474646759033203125e+02
1.684000015258789062e+01,1.470864868164062500e+02
1.687999916076660156e+01,1.467080535888671875e+02
1.692000007629394531e+01,1.463184661865234375e+02
1.695999908447265625e+01,1.459286804199218750e+02
1.700000000000000000e+01,1.455518646240234375e+02
1.703999900817871094e+01,1.451877288818359375e+02
1.707999992370605469e+01,1.448233184814453125e+02
1.711999893188476562e+01,1.444717407226562500e+02
1.715999984741210938e+01,1.441198577880859375e+02
1.719999885559082031e+01,1.437677001953125000e+02
1.723999977111816406e+01,1.434153442382812500e+02
1.727999877929687500e+01,1.430821685791015625e+02
1.731999969482421875e+01,1.427474060058593750e+02
1.735999870300292969e+01,1.424124755859375000e+02
1.739999961853027344e+01,1.420770874023437500e+02
1.743999862670898438e+01,1.417408599853515625e+02
1.747999954223632812e+01,1.414027252197265625e+02
