# Start of Energy Bin (keV), Effective Area (cm^2)
1.600000023841857910e+00,1.051374077796936035e+00
1.639999985694885254e+00,1.427961826324462891e+00
1.680000066757202148e+00,1.934340476989746094e+00
1.720000028610229492e+00,2.613919258117675781e+00
1.759999990463256836e+00,3.476383686065673828e+00
1.799999952316284180e+00,4.326519012451171875e+00
1.840000033378601074e+00,2.665736198425292969e+00
1.879999995231628418e+00,3.334077835083007812e+00
1.920000076293945312e+00,4.262681007385253906e+00
1.960000038146972656e+00,5.287311553955078125e+00
2.000000000000000000e+00,6.445565223693847656e+00
2.039999961853027344e+00,7.788910388946533203e+00
2.079999923706054688e+00,9.403285980224609375e+00
2.119999885559082031e+00,8.140219688415527344e+00
2.160000085830688477e+00,9.370882034301757812e+00
2.200000047683715820e+00,9.569274902343750000e+00
2.240000009536743164e+00,1.085784626007080078e+01
2.279999971389770508e+00,1.235728645324707031e+01
2.319999933242797852e+00,1.419394874572753906e+01
2.360000133514404297e+00,1.596181678771972656e+01
2.400000095367431641e+00,1.764658737182617188e+01
2.440000057220458984e+00,1.955572891235351562e+01
2.480000019073486328e+00,2.179724502563476562e+01
2.519999980926513672e+00,2.452209663391113281e+01
2.559999942779541016e+00,2.750506782531738281e+01
2.599999904632568359e+00,3.021020889282226562e+01
2.639999866485595703e+00,3.046549224853515625e+01
2.679999828338623047e+00,3.315306854248046875e+01
2.720000028610229492e+00,3.604010772705078125e+01
2.759999990463256836e+00,3.915798187255859375e+01
2.799999952316284180e+00,4.250809097290039062e+01
2.840000152587890625e+00,4.596511077880859375e+01
2.880000114440917969e+00,4.896374511718750000e+01
2.920000076293945312e+00,5.209542846679687500e+01
2.960000038146972656e+00,5.541052246093750000e+01
3.000000000000000000e+00,5.898589324951171875e+01
3.039999961853027344e+00,6.081716156005859375e+01
3.079999923706054688e+00,6.439562988281250000e+01
3.119999885559082031e+00,6.809973144531250000e+01
3.159999847412109375e+00,7.119973754882812500e+01
3.199999809265136719e+00,7.439558410644531250e+01
3.240000009536743164e+00,7.769187927246093750e+01
3.279999971389770508e+00,7.987594604492187500e+01
3.319999933242797852e+00,8.427176666259765625e+01
3.360000133514404297e+00,8.887567901611328125e+01
3.400000095367431641e+00,9.367674255371093750e+01
3.440000057220458984e+00,9.734381866455078125e+01
3.480000019073486328e+00,1.000128707885742188e+02
3.519999980926513672e+00,9.721069335937500000e+01
3.559999942779541016e+00,9.986414337158203125e+01
3.599999904632568359e+00,1.026051406860351562e+02
3.639999866485595703e+00,1.053787384033203125e+02
3.679999828338623047e+00,1.081896972656250000e+02
3.719999790191650391e+00,1.081614685058593750e+02
3.759999752044677734e+00,1.110569686889648438e+02
3.800000190734863281e+00,1.135973281860351562e+02
3.840000152587890625e+00,1.158877258300781250e+02
3.880000114440917969e+00,1.181817321777343750e+02
3.920000076293945312e+00,1.210342102050781250e+02
3.960000038146972656e+00,1.241032104492187500e+02
4.000000000000000000e+00,1.256350021362304688e+02
4.039999961853027344e+00,1.286313781738281250e+02
4.079999923706054688e+00,1.316607360839843750e+02
4.119999885559082031e+00,1.347251586914062500e+02
4.159999847412109375e+00,1.377884216308593750e+02
4.199999809265136719e+00,1.404208068847656250e+02
4.239999771118164062e+00,1.430652770996093750e+02
4.279999732971191406e+00,1.457285003662109375e+02
4.320000171661376953e+00,1.431346282958984375e+02
4.360000133514404297e+00,1.438858642578125000e+02
4.400000095367431641e+00,1.461937255859375000e+02
4.440000057220458984e+00,1.485127868652343750e+02
4.480000019073486328e+00,1.508543853759765625e+02
4.519999980926513672e+00,1.532094116210937500e+02
4.559999942779541016e+00,1.555607299804687500e+02
4.599999904632568359e+00,1.539587249755859375e+02
4.639999866485595703e+00,1.560703887939453125e+02
4.679999828338623047e+00,1.579962768554687500e+02
4.719999790191650391e+00,1.599262542724609375e+02
4.759999752044677734e+00,1.618556213378906250e+02
4.799999713897705078e+00,1.637833404541015625e+02
4.840000152587890625e+00,1.657002563476562500e+02
4.880000114440917969e+00,1.676119842529296875e+02
4.920000076293945312e+00,1.677026672363281250e+02
4.960000038146972656e+00,1.695970611572265625e+02
5.000000000000000000e+00,1.714446105957031250e+02
5.039999961853027344e+00,1.733990020751953125e+02
5.079999923706054688e+00,1.752391052246093750e+02
5.119999885559082031e+00,1.770810241699218750e+02
5.159999847412109375e+00,1.789171600341796875e+02
5.199999809265136719e+00,1.807451782226562500e+02
5.239999771118164062e+00,1.825667114257812500e+02
5.279999732971191406e+00,1.843867645263671875e+02
5.320000171661376953e+00,1.862029266357421875e+02
5.360000133514404297e+00,1.880176086425781250e+02
5.400000095367431641e+00,1.898273315429687500e+02
5.440000057220458984e+00,1.916302185058593750e+02
5.480000019073486328e+00,1.934303588867187500e+02
5.519999980926513672e+00,1.952348327636718750e+02
5.559999942779541016e+00,1.969080810546875000e+02
5.599999904632568359e+00,1.984428100585937500e+02
5.639999866485595703e+00,1.999715576171875000e+02
5.679999828338623047e+00,2.014952239990234375e+02
5.719999790191650391e+00,2.030109252929687500e+02
5.759999752044677734e+00,2.045215454101562500e+02
5.799999713897705078e+00,2.060107727050781250e+02
5.839999675750732422e+00,2.074797668457031250e+02
5.879999637603759766e+00,2.089437561035156250e+02
5.919999599456787109e+00,2.103958129882812500e+02
5.960000038146972656e+00,2.118425903320312500e+02
6.000000000000000000e+00,2.131829223632812500e+02
6.039999961853027344e+00,2.144144744873046875e+02
6.079999923706054688e+00,2.156391448974609375e+02
6.119999885559082031e+00,2.167691192626953125e+02
6.159999847412109375e+00,2.178257446289062500e+02
6.199999809265136719e+00,2.188831176757812500e+02
6.239999771118164062e+00,2.199418029785156250e+02
6.279999732971191406e+00,2.209935302734375000e+02
6.319999694824218750e+00,2.220266418457031250e+02
6.359999656677246094e+00,2.230527496337890625e+02
6.399999618530273438e+00,2.240673217773437500e+02
6.439999580383300781e+00,2.250706024169921875e+02
6.480000019073486328e+00,2.260672149658203125e+02
6.519999980926513672e+00,2.270724334716796875e+02
6.559999942779541016e+00,2.280715332031250000e+02
6.599999904632568359e+00,2.290602111816406250e+02
6.639999866485595703e+00,2.300385284423828125e+02
6.679999828338623047e+00,2.310111083984375000e+02
6.719999790191650391e+00,2.319225616455078125e+02
6.759999752044677734e+00,2.327333374023437500e+02
6.799999713897705078e+00,2.335287017822265625e+02
6.839999675750732422e+00,2.343090820312500000e+02
6.879999637603759766e+00,2.350836334228515625e+02
6.919999599456787109e+00,2.358500213623046875e+02
6.959999561309814453e+00,2.366105957031250000e+02
7.000000000000000000e+00,2.373100280761718750e+02
7.039999961853027344e+00,2.379476318359375000e+02
7.079999923706054688e+00,2.385808868408203125e+02
7.119999885559082031e+00,2.379535675048828125e+02
7.159999847412109375e+00,2.385752716064453125e+02
7.199999809265136719e+00,2.392102661132812500e+02
7.239999771118164062e+00,2.398593597412109375e+02
7.279999732971191406e+00,2.405033874511718750e+02
7.319999694824218750e+00,2.411404418945312500e+02
7.359999656677246094e+00,2.417722473144531250e+02
7.399999618530273438e+00,2.423920135498046875e+02
7.439999580383300781e+00,2.429997711181640625e+02
7.479999542236328125e+00,2.436029052734375000e+02
7.519999980926513672e+00,2.441947174072265625e+02
7.559999942779541016e+00,2.447818908691406250e+02
7.599999904632568359e+00,2.453570404052734375e+02
7.639999866485595703e+00,2.459197540283203125e+02
7.679999828338623047e+00,2.464782257080078125e+02
7.719999790191650391e+00,2.470391845703125000e+02
7.759999752044677734e+00,2.475964508056640625e+02
7.799999713897705078e+00,2.481424102783203125e+02
7.839999675750732422e+00,2.486763610839843750e+02
7.879999637603759766e+00,2.492063293457031250e+02
7.919999599456787109e+00,2.497283935546875000e+02
7.959999561309814453e+00,2.502465057373046875e+02
7.999999523162841797e+00,2.507377319335937500e+02
8.039999961853027344e+00,2.512023315429687500e+02
8.079999923706054688e+00,2.516633148193359375e+02
8.119999885559082031e+00,2.521203918457031250e+02
8.159999847412109375e+00,2.525093994140625000e+02
8.199999809265136719e+00,2.528803405761718750e+02
8.239999771118164062e+00,2.532472686767578125e+02
8.279999732971191406e+00,2.536525268554687500e+02
8.319999694824218750e+00,2.540544586181640625e+02
8.359999656677246094e+00,2.544531707763671875e+02
8.399999618530273438e+00,2.548269653320312500e+02
8.439999580383300781e+00,2.551763000488281250e+02
8.479999542236328125e+00,2.555223693847656250e+02
8.520000457763671875e+00,2.558852844238281250e+02
8.560000419616699219e+00,2.562449951171875000e+02
8.600000381469726562e+00,2.565672302246093750e+02
8.640000343322753906e+00,2.568517150878906250e+02
8.680000305175781250e+00,2.571329956054687500e+02
8.720000267028808594e+00,2.574137573242187500e+02
8.760000228881835938e+00,2.576914978027343750e+02
8.800000190734863281e+00,2.579198608398437500e+02
8.840000152587890625e+00,2.580986328125000000e+02
8.880000114440917969e+00,2.582741699218750000e+02
8.920000076293945312e+00,2.584358215332031250e+02
8.960000038146972656e+00,2.585584716796875000e+02
9.000000000000000000e+00,2.586030883789062500e+02
9.039999961853027344e+00,2.585896606445312500e+02
9.079999923706054688e+00,2.585728759765625000e+02
9.119999885559082031e+00,2.585843505859375000e+02
9.159999847412109375e+00,2.587339477539062500e+02
9.199999809265136719e+00,2.588259582519531250e+02
9.239999771118164062e+00,2.588601074218750000e+02
9.279999732971191406e+00,2.588907470703125000e+02
9.319999694824218750e+00,2.589336853027343750e+02
9.359999656677246094e+00,2.589731750488281250e+02
9.399999618530273438e+00,2.589519042968750000e+02
9.439999580383300781e+00,2.588696594238281250e+02
9.479999542236328125e+00,2.587839355468750000e+02
9.519999504089355469e+00,2.587022399902343750e+02
9.560000419616699219e+00,2.586173095703125000e+02
9.600000381469726562e+00,2.583450927734375000e+02
9.640000343322753906e+00,2.579368591308593750e+02
9.680000305175781250e+00,2.576795959472656250e+02
9.720000267028808594e+00,2.574164123535156250e+02
9.760000228881835938e+00,2.571497192382812500e+02
9.800000190734863281e+00,2.565070190429687500e+02
9.840000152587890625e+00,2.554807434082031250e+02
9.880000114440917969e+00,2.544276428222656250e+02
9.920000076293945312e+00,2.533915405273437500e+02
9.960000038146972656e+00,2.528409729003906250e+02
1.000000000000000000e+01,2.499261322021484375e+02
1.003999996185302734e+01,2.442845611572265625e+02
1.007999992370605469e+01,2.386182861328125000e+02
1.011999988555908203e+01,2.329143066406250000e+02
1.015999984741210938e+01,2.271880035400390625e+02
1.019999980926513672e+01,2.208608703613281250e+02
1.023999977111816406e+01,2.212533874511718750e+02
1.027999973297119141e+01,2.216372070312500000e+02
1.032000064849853516e+01,2.220186920166015625e+02
1.036000061035156250e+01,2.223919219970703125e+02
1.040000057220458984e+01,2.235861968994140625e+02
1.044000053405761719e+01,2.252089691162109375e+02
1.048000049591064453e+01,2.256114349365234375e+02
1.052000045776367188e+01,2.260263366699218750e+02
1.056000041961669922e+01,2.264357452392578125e+02
1.060000038146972656e+01,2.263126525878906250e+02
1.064000034332275391e+01,2.256605072021484375e+02
1.068000030517578125e+01,2.250066223144531250e+02
1.072000026702880859e+01,2.243025360107421875e+02
1.076000022888183594e+01,2.235972900390625000e+02
1.080000019073486328e+01,2.227901916503906250e+02
1.084000015258789062e+01,2.218670959472656250e+02
1.088000011444091797e+01,2.209369659423828125e+02
1.092000007629394531e+01,2.200355224609375000e+02
1.096000003814697266e+01,2.191340942382812500e+02
1.100000000000000000e+01,2.181382598876953125e+02
1.103999996185302734e+01,2.170484008789062500e+02
1.107999992370605469e+01,2.159598083496093750e+02
1.111999988555908203e+01,2.159163818359375000e+02
1.115999984741210938e+01,2.158706054687500000e+02
1.119999980926513672e+01,2.153743286132812500e+02
1.123999977111816406e+01,2.144257965087890625e+02
1.127999973297119141e+01,2.134721832275390625e+02
1.131999969482421875e+01,2.125306091308593750e+02
1.136000061035156250e+01,2.115841064453125000e+02
1.140000057220458984e+01,2.095828552246093750e+02
1.144000053405761719e+01,2.065213012695312500e+02
1.148000049591064453e+01,2.034466552734375000e+02
1.152000045776367188e+01,2.001651458740234375e+02
1.156000041961669922e+01,1.908702087402343750e+02
1.160000038146972656e+01,1.884515686035156250e+02
1.164000034332275391e+01,1.878159790039062500e+02
1.168000030517578125e+01,1.871743164062500000e+02
1.172000026702880859e+01,1.865222167968750000e+02
1.176000022888183594e+01,1.858610992431640625e+02
1.180000019073486328e+01,1.851148223876953125e+02
1.184000015258789062e+01,1.842871551513671875e+02
1.188000011444091797e+01,1.834586029052734375e+02
1.192000007629394531e+01,1.826263580322265625e+02
1.196000003814697266e+01,1.817875061035156250e+02
1.200000000000000000e+01,1.808158721923828125e+02
1.203999996185302734e+01,1.797119903564453125e+02
1.207999992370605469e+01,1.789446563720703125e+02
1.211999988555908203e+01,1.791629028320312500e+02
1.215999984741210938e+01,1.793803405761718750e+02
1.219999980926513672e+01,1.795372619628906250e+02
1.223999977111816406e+01,1.796335144042968750e+02
1.227999973297119141e+01,1.797288818359375000e+02
1.231999969482421875e+01,1.798111572265625000e+02
1.236000061035156250e+01,1.798927001953125000e+02
1.240000057220458984e+01,1.798744812011718750e+02
1.244000053405761719e+01,1.797570190429687500e+02
1.248000049591064453e+01,1.796385498046875000e+02
1.252000045776367188e+01,1.795145416259765625e+02
1.256000041961669922e+01,1.793899078369140625e+02
1.260000038146972656e+01,1.792041778564453125e+02
1.264000034332275391e+01,1.789576110839843750e+02
1.268000030517578125e+01,1.787104034423828125e+02
1.272000026702880859e+01,1.784742279052734375e+02
1.276000022888183594e+01,1.782372131347656250e+02
1.280000019073486328e+01,1.779584045410156250e+02
1.284000015258789062e+01,1.776377563476562500e+02
1.288000011444091797e+01,1.773171234130859375e+02
1.292000007629394531e+01,1.769877624511718750e+02
1.296000003814697266e+01,1.766577911376953125e+02
1.300000000000000000e+01,1.761416015625000000e+02
1.303999996185302734e+01,1.754396362304687500e+02
1.307999992370605469e+01,1.747379760742187500e+02
1.311999988555908203e+01,1.740258941650390625e+02
1.315999984741210938e+01,1.733119506835937500e+02
1.319999980926513672e+01,1.724901428222656250e+02
1.323999977111816406e+01,1.715614624023437500e+02
1.327999973297119141e+01,1.704943237304687500e+02
1.331999969482421875e+01,1.676751098632812500e+02
1.335999965667724609e+01,1.666856231689453125e+02
1.340000057220458984e+01,1.660032806396484375e+02
1.344000053405761719e+01,1.655609130859375000e+02
1.348000049591064453e+01,1.651177978515625000e+02
1.352000045776367188e+01,1.646557922363281250e+02
1.356000041961669922e+01,1.641933288574218750e+02
1.360000038146972656e+01,1.636745605468750000e+02
1.364000034332275391e+01,1.630999145507812500e+02
1.368000030517578125e+01,1.625243835449218750e+02
1.372000026702880859e+01,1.619570312500000000e+02
1.376000022888183594e+01,1.613891296386718750e+02
1.380000019073486328e+01,1.607714691162109375e+02
1.384000015258789062e+01,1.594734191894531250e+02
1.388000011444091797e+01,1.587974853515625000e+02
1.392000007629394531e+01,1.584427490234375000e+02
1.396000003814697266e+01,1.580886535644531250e+02
1.400000000000000000e+01,1.577694091796875000e+02
1.403999996185302734e+01,1.574850463867187500e+02
1.407999992370605469e+01,1.572000122070312500e+02
1.411999988555908203e+01,1.569169921875000000e+02
1.415999984741210938e+01,1.566334075927734375e+02
1.419999980926513672e+01,1.563451843261718750e+02
1.423999977111816406e+01,1.560523376464843750e+02
1.427999973297119141e+01,1.557589721679687500e+02
1.431999969482421875e+01,1.554764251708984375e+02
1.435999965667724609e+01,1.551934356689453125e+02
1.439999961853027344e+01,1.548913726806640625e+02
1.444000053405761719e+01,1.545657043457031250e+02
1.448000049591064453e+01,1.542398986816406250e+02
1.452000045776367188e+01,1.538890686035156250e+02
1.456000041961669922e+01,1.535379943847656250e+02
1.460000038146972656e+01,1.531816253662109375e+02
1.464000034332275391e+01,1.528198852539062500e+02
1.468000030517578125e+01,1.524580383300781250e+02
1.472000026702880859e+01,1.521113739013671875e+02
1.476000022888183594e+01,1.517644500732421875e+02
1.480000019073486328e+01,1.514143066406250000e+02
1.484000015258789062e+01,1.510608520507812500e+02
1.488000011444091797e+01,1.507068176269531250e+02
1.492000007629394531e+01,1.503437500000000000e+02
1.496000003814697266e+01,1.499805603027343750e+02
1.500000000000000000e+01,1.496159820556640625e+02
1.503999996185302734e+01,1.492500457763671875e+02
1.507999992370605469e+01,1.488839721679687500e+02
1.511999988555908203e+01,1.485216064453125000e+02
1.515999984741210938e+01,1.481591644287109375e+02
1.519999980926513672e+01,1.477923583984375000e+02
1.523999977111816406e+01,1.474211730957031250e+02
1.527999973297119141e+01,1.470498962402343750e+02
1.531999969482421875e+01,1.466770477294921875e+02
1.535999965667724609e+01,1.463040771484375000e+02
1.539999961853027344e+01,1.459319458007812500e+02
1.544000053405761719e+01,1.455606079101562500e+02
1.548000049591064453e+01,1.451891937255859375e+02
1.552000045776367188e+01,1.448125305175781250e+02
1.556000041961669922e+01,1.444356842041015625e+02
1.560000038146972656e+01,1.440678100585937500e+02
1.564000034332275391e+01,1.437088165283203125e+02
1.568000030517578125e+01,1.433496704101562500e+02
1.572000026702880859e+01,1.429781494140625000e+02
1.576000022888183594e+01,1.426062622070312500e+02
1.580000019073486328e+01,1.422276153564453125e+02
1.584000015258789062e+01,1.418421783447265625e+02
1.588000011444091797e+01,1.414540252685546875e+02
1.592000007629394531e+01,1.410675659179687500e+02
1.596000003814697266e+01,1.406810760498046875e+02
1.600000000000000000e+01,1.402973785400390625e+02
1.603999900817871094e+01,1.399164123535156250e+02
1.607999992370605469e+01,1.395353393554687500e+02
1.611999893188476562e+01,1.391632385253906250e+02
1.615999984741210938e+01,1.387909545898437500e+02
1.619999885559082031e+01,1.384185943603515625e+02
1.623999977111816406e+01,1.380459899902343750e+02
1.627999877929687500e+01,1.376733093261718750e+02
1.631999969482421875e+01,1.372752075195312500e+02
1.635999870300292969e+01,1.368771209716796875e+02
1.639999961853027344e+01,1.364790649414062500e+02
1.643999862670898438e+01,1.360811157226562500e+02
1.647999954223632812e+01,1.356830749511718750e+02
1.652000045776367188e+01,1.353105926513671875e+02
1.655999946594238281e+01,1.349380340576171875e+02
1.660000038146972656e+01,1.345653839111328125e+02
1.663999938964843750e+01,1.341926269531250000e+02
1.668000030517578125e+01,1.338197174072265625e+02
1.671999931335449219e+01,1.334489746093750000e+02
1.676000022888183594e+01,1.330781250000000000e+02
1.679999923706054688e+01,1.327070312500000000e+02
1.684000015258789062e+01,1.323358764648437500e+02
1.687999916076660156e+01,1.319646148681640625e+02
1.692000007629394531e+01,1.315974731445312500e+02
1.695999908447265625e+01,1.312302093505859375e+02
1.700000000000000000e+01,1.308731689453125000e+02
1.703999900817871094e+01,1.305260772705078125e+02
1.707999992370605469e+01,1.301788330078125000e+02
1.711999893188476562e+01,1.298189086914062500e+02
1.715999984741210938e+01,1.294589080810546875e+02
1.719999885559082031e+01,1.290988922119140625e+02
1.723999977111816406e+01,1.287389221191406250e+02
1.727999877929687500e+01,1.283954315185546875e+02
1.731999969482421875e+01,1.280708618164062500e+02
1.735999870300292969e+01,1.277462310791015625e+02
1.739999961853027344e+01,1.274212951660156250e+02
1.743999862670898438e+01,1.270956954956054688e+02
1.747999954223632812e+01,1.267684860229492188e+02
