# Start of Energy Bin (keV), Effective Area (cm^2)
1.600000023841857910e+00,6.802847385406494141e-01
1.639999985694885254e+00,9.165605902671813965e-01
1.680000066757202148e+00,1.232506036758422852e+00
1.720000028610229492e+00,1.654365301132202148e+00
1.759999990463256836e+00,2.186669111251831055e+00
1.799999952316284180e+00,2.706367969512939453e+00
1.840000033378601074e+00,1.659181952476501465e+00
1.879999995231628418e+00,2.064862012863159180e+00
1.920000076293945312e+00,2.626780033111572266e+00
1.960000038146972656e+00,3.243003368377685547e+00
2.000000000000000000e+00,3.935934066772460938e+00
2.039999961853027344e+00,4.736253261566162109e+00
2.079999923706054688e+00,5.695428848266601562e+00
2.119999885559082031e+00,4.979649543762207031e+00
2.160000085830688477e+00,5.711727619171142578e+00
2.200000047683715820e+00,5.838044166564941406e+00
2.240000009536743164e+00,6.605713844299316406e+00
2.279999971389770508e+00,7.498199939727783203e+00
2.319999933242797852e+00,8.591009140014648438e+00
2.360000133514404297e+00,9.638635635375976562e+00
2.400000095367431641e+00,1.063269519805908203e+01
2.440000057220458984e+00,1.175715827941894531e+01
2.480000019073486328e+00,1.307461929321289062e+01
2.519999980926513672e+00,1.467188072204589844e+01
2.559999942779541016e+00,1.641718673706054688e+01
2.599999904632568359e+00,1.799118232727050781e+01
2.639999866485595703e+00,1.815189933776855469e+01
2.679999828338623047e+00,1.971296691894531250e+01
2.720000028610229492e+00,2.138851928710937500e+01
2.759999990463256836e+00,2.319604682922363281e+01
2.799999952316284180e+00,2.513636016845703125e+01
2.840000152587890625e+00,2.713508415222167969e+01
2.880000114440917969e+00,2.885890197753906250e+01
2.920000076293945312e+00,3.065807342529296875e+01
2.960000038146972656e+00,3.256113433837890625e+01
3.000000000000000000e+00,3.462062072753906250e+01
3.039999961853027344e+00,3.570394134521484375e+01
3.079999923706054688e+00,3.777864074707031250e+01
3.119999885559082031e+00,3.992627716064453125e+01
3.159999847412109375e+00,4.171916961669921875e+01
3.199999809265136719e+00,4.356819915771484375e+01
3.240000009536743164e+00,4.547598266601562500e+01
3.279999971389770508e+00,4.675969696044921875e+01
3.319999933242797852e+00,4.923168182373046875e+01
3.360000133514404297e+00,5.181692123413085938e+01
3.400000095367431641e+00,5.450971984863281250e+01
3.440000057220458984e+00,5.657881164550781250e+01
3.480000019073486328e+00,5.808023452758789062e+01
3.519999980926513672e+00,5.724190521240234375e+01
3.559999942779541016e+00,5.874759674072265625e+01
3.599999904632568359e+00,6.029335021972656250e+01
3.639999866485595703e+00,6.185538482666015625e+01
3.679999828338623047e+00,6.343750381469726562e+01
3.719999790191650391e+00,6.379869842529296875e+01
3.759999752044677734e+00,6.542418670654296875e+01
3.800000190734863281e+00,6.684307861328125000e+01
3.840000152587890625e+00,6.811232757568359375e+01
3.880000114440917969e+00,6.938351440429687500e+01
3.920000076293945312e+00,7.098369598388671875e+01
3.960000038146972656e+00,7.271010589599609375e+01
4.000000000000000000e+00,7.376918792724609375e+01
4.039999961853027344e+00,7.545281982421875000e+01
4.079999923706054688e+00,7.715540313720703125e+01
4.119999885559082031e+00,7.887629699707031250e+01
4.159999847412109375e+00,8.059574890136718750e+01
4.199999809265136719e+00,8.206271362304687500e+01
4.239999771118164062e+00,8.353633880615234375e+01
4.279999732971191406e+00,8.502026367187500000e+01
4.320000171661376953e+00,8.424415588378906250e+01
4.360000133514404297e+00,8.486131286621093750e+01
4.400000095367431641e+00,8.613603210449218750e+01
4.440000057220458984e+00,8.741596984863281250e+01
4.480000019073486328e+00,8.870629882812500000e+01
4.519999980926513672e+00,9.000207519531250000e+01
4.559999942779541016e+00,9.129721069335937500e+01
4.599999904632568359e+00,9.084271240234375000e+01
4.639999866485595703e+00,9.196643066406250000e+01
4.679999828338623047e+00,9.300989532470703125e+01
4.719999790191650391e+00,9.405274963378906250e+01
4.759999752044677734e+00,9.509533691406250000e+01
4.799999713897705078e+00,9.613609313964843750e+01
4.840000152587890625e+00,9.717123413085937500e+01
4.880000114440917969e+00,9.820375061035156250e+01
4.920000076293945312e+00,9.845633697509765625e+01
4.960000038146972656e+00,9.948706054687500000e+01
5.000000000000000000e+00,1.004910583496093750e+02
5.039999961853027344e+00,1.015637359619140625e+02
5.079999923706054688e+00,1.025739440917968750e+02
5.119999885559082031e+00,1.035813293457031250e+02
5.159999847412109375e+00,1.045861511230468750e+02
5.199999809265136719e+00,1.055869445800781250e+02
5.239999771118164062e+00,1.065846252441406250e+02
5.279999732971191406e+00,1.075817947387695312e+02
5.320000171661376953e+00,1.085789260864257812e+02
5.360000133514404297e+00,1.095756530761718750e+02
5.400000095367431641e+00,1.105700988769531250e+02
5.440000057220458984e+00,1.115613098144531250e+02
5.480000019073486328e+00,1.125516510009765625e+02
5.519999980926513672e+00,1.135398101806640625e+02
5.559999942779541016e+00,1.144521789550781250e+02
5.599999904632568359e+00,1.152848510742187500e+02
5.639999866485595703e+00,1.161147232055664062e+02
5.679999828338623047e+00,1.169422607421875000e+02
5.719999790191650391e+00,1.177711410522460938e+02
5.759999752044677734e+00,1.185977020263671875e+02
5.799999713897705078e+00,1.194125976562500000e+02
5.839999675750732422e+00,1.202164306640625000e+02
5.879999637603759766e+00,1.210181427001953125e+02
5.919999599456787109e+00,1.218161163330078125e+02
5.960000038146972656e+00,1.226118240356445312e+02
6.000000000000000000e+00,1.233436584472656250e+02
6.039999961853027344e+00,1.240102691650390625e+02
6.079999923706054688e+00,1.246736450195312500e+02
6.119999885559082031e+00,1.252769775390625000e+02
6.159999847412109375e+00,1.258386993408203125e+02
6.199999809265136719e+00,1.264015808105468750e+02
6.239999771118164062e+00,1.269657287597656250e+02
6.279999732971191406e+00,1.275265502929687500e+02
6.319999694824218750e+00,1.280845184326171875e+02
6.359999656677246094e+00,1.286391448974609375e+02
6.399999618530273438e+00,1.291878509521484375e+02
6.439999580383300781e+00,1.297308044433593750e+02
6.480000019073486328e+00,1.302705230712890625e+02
6.519999980926513672e+00,1.308054809570312500e+02
6.559999942779541016e+00,1.313374023437500000e+02
6.599999904632568359e+00,1.318639678955078125e+02
6.639999866485595703e+00,1.323851623535156250e+02
6.679999828338623047e+00,1.329036254882812500e+02
6.719999790191650391e+00,1.333966674804687500e+02
6.759999752044677734e+00,1.338324890136718750e+02
6.799999713897705078e+00,1.342601318359375000e+02
6.839999675750732422e+00,1.346798400878906250e+02
6.879999637603759766e+00,1.350967712402343750e+02
6.919999599456787109e+00,1.355091400146484375e+02
6.959999561309814453e+00,1.359187316894531250e+02
7.000000000000000000e+00,1.362957763671875000e+02
7.039999961853027344e+00,1.366398315429687500e+02
7.079999923706054688e+00,1.369818878173828125e+02
7.119999885559082031e+00,1.365928955078125000e+02
7.159999847412109375e+00,1.369216003417968750e+02
7.199999809265136719e+00,1.372591247558593750e+02
7.239999771118164062e+00,1.376056671142578125e+02
7.279999732971191406e+00,1.379497833251953125e+02
7.319999694824218750e+00,1.382949523925781250e+02
7.359999656677246094e+00,1.386375122070312500e+02
7.399999618530273438e+00,1.389738159179687500e+02
7.439999580383300781e+00,1.393036651611328125e+02
7.479999542236328125e+00,1.396314697265625000e+02
7.519999980926513672e+00,1.399550476074218750e+02
7.559999942779541016e+00,1.402764282226562500e+02
7.599999904632568359e+00,1.405916290283203125e+02
7.639999866485595703e+00,1.409004974365234375e+02
7.679999828338623047e+00,1.412072448730468750e+02
7.719999790191650391e+00,1.415120849609375000e+02
7.759999752044677734e+00,1.418152008056640625e+02
7.799999713897705078e+00,1.421125488281250000e+02
7.839999675750732422e+00,1.424039001464843750e+02
7.879999637603759766e+00,1.426934204101562500e+02
7.919999599456787109e+00,1.429810943603515625e+02
7.959999561309814453e+00,1.432668609619140625e+02
7.999999523162841797e+00,1.435366516113281250e+02
8.039999961853027344e+00,1.437904052734375000e+02
8.079999923706054688e+00,1.440424499511718750e+02
8.119999885559082031e+00,1.442928314208984375e+02
8.159999847412109375e+00,1.445044555664062500e+02
8.199999809265136719e+00,1.447077331542968750e+02
8.239999771118164062e+00,1.449086151123046875e+02
8.279999732971191406e+00,1.451259002685546875e+02
8.319999694824218750e+00,1.453415222167968750e+02
8.359999656677246094e+00,1.455556488037109375e+02
8.399999618530273438e+00,1.457585754394531250e+02
8.439999580383300781e+00,1.459505004882812500e+02
8.479999542236328125e+00,1.461408081054687500e+02
8.520000457763671875e+00,1.463298034667968750e+02
8.560000419616699219e+00,1.465172271728515625e+02
8.600000381469726562e+00,1.466875305175781250e+02
8.640000343322753906e+00,1.468405456542968750e+02
8.680000305175781250e+00,1.469920043945312500e+02
8.720000267028808594e+00,1.471419067382812500e+02
8.760000228881835938e+00,1.472904663085937500e+02
8.800000190734863281e+00,1.474135437011718750e+02
8.840000152587890625e+00,1.475110168457031250e+02
8.880000114440917969e+00,1.476071166992187500e+02
8.920000076293945312e+00,1.477019958496093750e+02
8.960000038146972656e+00,1.477749328613281250e+02
9.000000000000000000e+00,1.478021240234375000e+02
9.039999961853027344e+00,1.477948608398437500e+02
9.079999923706054688e+00,1.477860260009765625e+02
9.119999885559082031e+00,1.477919769287109375e+02
9.159999847412109375e+00,1.478765563964843750e+02
9.199999809265136719e+00,1.479261474609375000e+02
9.239999771118164062e+00,1.479407043457031250e+02
9.279999732971191406e+00,1.479534912109375000e+02
9.319999694824218750e+00,1.479649658203125000e+02
9.359999656677246094e+00,1.479746398925781250e+02
9.399999618530273438e+00,1.479495849609375000e+02
9.439999580383300781e+00,1.478897399902343750e+02
9.479999542236328125e+00,1.478281860351562500e+02
9.519999504089355469e+00,1.477647094726562500e+02
9.560000419616699219e+00,1.476996765136718750e+02
9.600000381469726562e+00,1.475438995361328125e+02
9.640000343322753906e+00,1.473193054199218750e+02
9.680000305175781250e+00,1.471590881347656250e+02
9.720000267028808594e+00,1.469971466064453125e+02
9.760000228881835938e+00,1.468333892822265625e+02
9.800000190734863281e+00,1.464609375000000000e+02
9.840000152587890625e+00,1.458754272460937500e+02
9.880000114440917969e+00,1.452749938964843750e+02
9.920000076293945312e+00,1.446733398437500000e+02
9.960000038146972656e+00,1.443498535156250000e+02
1.000000000000000000e+01,1.426813049316406250e+02
1.003999996185302734e+01,1.394605560302734375e+02
1.007999992370605469e+01,1.362261962890625000e+02
1.011999988555908203e+01,1.329787139892578125e+02
1.015999984741210938e+01,1.297185516357421875e+02
1.019999980926513672e+01,1.261151885986328125e+02
1.023999977111816406e+01,1.263019256591796875e+02
1.027999973297119141e+01,1.264837341308593750e+02
1.032000064849853516e+01,1.266608428955078125e+02
1.036000061035156250e+01,1.268332824707031250e+02
1.040000057220458984e+01,1.274720916748046875e+02
1.044000053405761719e+01,1.283570861816406250e+02
1.048000049591064453e+01,1.285589599609375000e+02
1.052000045776367188e+01,1.287575988769531250e+02
1.056000041961669922e+01,1.289531250000000000e+02
1.060000038146972656e+01,1.288515930175781250e+02
1.064000034332275391e+01,1.284549255371093750e+02
1.068000030517578125e+01,1.280576782226562500e+02
1.072000026702880859e+01,1.276597595214843750e+02
1.076000022888183594e+01,1.272612915039062500e+02
1.080000019073486328e+01,1.268062210083007812e+02
1.084000015258789062e+01,1.262863922119140625e+02
1.088000011444091797e+01,1.257627410888671875e+02
1.092000007629394531e+01,1.252501296997070312e+02
1.096000003814697266e+01,1.247376174926757812e+02
1.100000000000000000e+01,1.241728820800781250e+02
1.103999996185302734e+01,1.235561904907226562e+02
1.107999992370605469e+01,1.229402770996093750e+02
1.111999988555908203e+01,1.229112472534179688e+02
1.115999984741210938e+01,1.228809204101562500e+02
1.119999980926513672e+01,1.225997390747070312e+02
1.123999977111816406e+01,1.220665359497070312e+02
1.127999973297119141e+01,1.215305023193359375e+02
1.131999969482421875e+01,1.209937210083007812e+02
1.136000061035156250e+01,1.204542999267578125e+02
1.140000057220458984e+01,1.193133697509765625e+02
1.144000053405761719e+01,1.175678176879882812e+02
1.148000049591064453e+01,1.158149719238281250e+02
1.152000045776367188e+01,1.139475326538085938e+02
1.156000041961669922e+01,1.087707824707031250e+02
1.160000038146972656e+01,1.073821182250976562e+02
1.164000034332275391e+01,1.070082931518554688e+02
1.168000030517578125e+01,1.066310653686523438e+02
1.172000026702880859e+01,1.062486877441406250e+02
1.176000022888183594e+01,1.058614273071289062e+02
1.180000019073486328e+01,1.054305114746093750e+02
1.184000015258789062e+01,1.049581604003906250e+02
1.188000011444091797e+01,1.044853134155273438e+02
1.192000007629394531e+01,1.040143127441406250e+02
1.196000003814697266e+01,1.035396499633789062e+02
1.200000000000000000e+01,1.029900054931640625e+02
1.203999996185302734e+01,1.023657684326171875e+02
1.207999992370605469e+01,1.019296112060546875e+02
1.211999988555908203e+01,1.020314636230468750e+02
1.215999984741210938e+01,1.021328430175781250e+02
1.219999980926513672e+01,1.022017211914062500e+02
1.223999977111816406e+01,1.022378997802734375e+02
1.227999973297119141e+01,1.022735977172851562e+02
1.231999969482421875e+01,1.023208618164062500e+02
1.236000061035156250e+01,1.023676757812500000e+02
1.240000057220458984e+01,1.023595581054687500e+02
1.244000053405761719e+01,1.022967681884765625e+02
1.248000049591064453e+01,1.022333984375000000e+02
1.252000045776367188e+01,1.021574783325195312e+02
1.256000041961669922e+01,1.020812072753906250e+02
1.260000038146972656e+01,1.019710998535156250e+02
1.264000034332275391e+01,1.018271636962890625e+02
1.268000030517578125e+01,1.016829681396484375e+02
1.272000026702880859e+01,1.015443038940429688e+02
1.276000022888183594e+01,1.014052581787109375e+02
1.280000019073486328e+01,1.012430725097656250e+02
1.284000015258789062e+01,1.010576934814453125e+02
1.288000011444091797e+01,1.008723602294921875e+02
1.292000007629394531e+01,1.006927032470703125e+02
1.296000003814697266e+01,1.005126800537109375e+02
1.300000000000000000e+01,1.002272491455078125e+02
1.303999996185302734e+01,9.983666992187500000e+01
1.307999992370605469e+01,9.944622802734375000e+01
1.311999988555908203e+01,9.904059600830078125e+01
1.315999984741210938e+01,9.863397979736328125e+01
1.319999980926513672e+01,9.816607666015625000e+01
1.323999977111816406e+01,9.763752746582031250e+01
1.327999973297119141e+01,9.701998138427734375e+01
1.331999969482421875e+01,9.545594787597656250e+01
1.335999965667724609e+01,9.488653564453125000e+01
1.340000057220458984e+01,9.449266052246093750e+01
1.344000053405761719e+01,9.423791503906250000e+01
1.348000049591064453e+01,9.398275756835937500e+01
1.352000045776367188e+01,9.371629333496093750e+01
1.356000041961669922e+01,9.344960021972656250e+01
1.360000038146972656e+01,9.315147399902343750e+01
1.364000034332275391e+01,9.282208251953125000e+01
1.368000030517578125e+01,9.249224853515625000e+01
1.372000026702880859e+01,9.217314147949218750e+01
1.376000022888183594e+01,9.185369873046875000e+01
1.380000019073486328e+01,9.150537109375000000e+01
1.384000015258789062e+01,9.078511047363281250e+01
1.388000011444091797e+01,9.040840148925781250e+01
1.392000007629394531e+01,9.019992828369140625e+01
1.396000003814697266e+01,8.999190521240234375e+01
1.400000000000000000e+01,8.980410766601562500e+01
1.403999996185302734e+01,8.963663482666015625e+01
1.407999992370605469e+01,8.946885681152343750e+01
1.411999988555908203e+01,8.930065917968750000e+01
1.415999984741210938e+01,8.913213348388671875e+01
1.419999980926513672e+01,8.896122741699218750e+01
1.423999977111816406e+01,8.878784179687500000e+01
1.427999973297119141e+01,8.861416625976562500e+01
1.431999969482421875e+01,8.844036865234375000e+01
1.435999965667724609e+01,8.826635742187500000e+01
1.439999961853027344e+01,8.808154296875000000e+01
1.444000053405761719e+01,8.788327789306640625e+01
1.448000049591064453e+01,8.768501281738281250e+01
1.452000045776367188e+01,8.748660278320312500e+01
1.456000041961669922e+01,8.728807830810546875e+01
1.460000038146972656e+01,8.708636474609375000e+01
1.464000034332275391e+01,8.688150024414062500e+01
1.468000030517578125e+01,8.667657470703125000e+01
1.472000026702880859e+01,8.647175598144531250e+01
1.476000022888183594e+01,8.626686096191406250e+01
1.480000019073486328e+01,8.606008148193359375e+01
1.484000015258789062e+01,8.585140991210937500e+01
1.488000011444091797e+01,8.564247131347656250e+01
1.492000007629394531e+01,8.542823791503906250e+01
1.496000003814697266e+01,8.521400451660156250e+01
1.500000000000000000e+01,8.499885559082031250e+01
1.503999996185302734e+01,8.478283691406250000e+01
1.507999992370605469e+01,8.456680297851562500e+01
1.511999988555908203e+01,8.435575866699218750e+01
1.515999984741210938e+01,8.414471435546875000e+01
1.519999980926513672e+01,8.393124389648437500e+01
1.523999977111816406e+01,8.371530151367187500e+01
1.527999973297119141e+01,8.349934387207031250e+01
1.531999969482421875e+01,8.328837585449218750e+01
1.535999965667724609e+01,8.307728576660156250e+01
1.539999961853027344e+01,8.286663818359375000e+01
1.544000053405761719e+01,8.265636444091796875e+01
1.548000049591064453e+01,8.244604492187500000e+01
1.552000045776367188e+01,8.223088073730468750e+01
1.556000041961669922e+01,8.201564788818359375e+01
1.560000038146972656e+01,8.180548095703125000e+01
1.564000034332275391e+01,8.160028076171875000e+01
1.568000030517578125e+01,8.139495849609375000e+01
1.572000026702880859e+01,8.118141174316406250e+01
1.576000022888183594e+01,8.096766662597656250e+01
1.580000019073486328e+01,8.075018310546875000e+01
1.584000015258789062e+01,8.052888488769531250e+01
1.588000011444091797e+01,8.030604553222656250e+01
1.592000007629394531e+01,8.008322143554687500e+01
1.596000003814697266e+01,7.986048889160156250e+01
1.600000000000000000e+01,7.963940429687500000e+01
1.603999900817871094e+01,7.941999053955078125e+01
1.607999992370605469e+01,7.920053100585937500e+01
1.611999893188476562e+01,7.898092651367187500e+01
1.615999984741210938e+01,7.876123809814453125e+01
1.619999885559082031e+01,7.854158782958984375e+01
1.623999977111816406e+01,7.832185363769531250e+01
1.627999877929687500e+01,7.810215759277343750e+01
1.631999969482421875e+01,7.788249206542968750e+01
1.635999870300292969e+01,7.766281127929687500e+01
1.639999961853027344e+01,7.744310760498046875e+01
1.643999862670898438e+01,7.722344970703125000e+01
1.647999954223632812e+01,7.700374603271484375e+01
1.652000045776367188e+01,7.679019165039062500e+01
1.655999946594238281e+01,7.657664489746093750e+01
1.660000038146972656e+01,7.636300659179687500e+01
1.663999938964843750e+01,7.614937591552734375e+01
1.668000030517578125e+01,7.593568420410156250e+01
1.671999931335449219e+01,7.572178649902343750e+01
1.676000022888183594e+01,7.550782775878906250e+01
1.679999923706054688e+01,7.529377746582031250e+01
1.684000015258789062e+01,7.507975006103515625e+01
1.687999916076660156e+01,7.486565399169921875e+01
1.692000007629394531e+01,7.465165710449218750e+01
1.695999908447265625e+01,7.443760681152343750e+01
1.700000000000000000e+01,7.422953033447265625e+01
1.703999900817871094e+01,7.402731323242187500e+01
1.707999992370605469e+01,7.382502746582031250e+01
1.711999893188476562e+01,7.362277221679687500e+01
1.715999984741210938e+01,7.342045593261718750e+01
1.719999885559082031e+01,7.321814727783203125e+01
1.723999977111816406e+01,7.301583862304687500e+01
1.727999877929687500e+01,7.282295989990234375e+01
1.731999969482421875e+01,7.263303375244140625e+01
1.735999870300292969e+01,7.244309997558593750e+01
1.739999961853027344e+01,7.225305175781250000e+01
1.743999862670898438e+01,7.206262969970703125e+01
1.747999954223632812e+01,7.187134552001953125e+01
