# Start of Energy Bin (keV), Effective Area (cm^2)
1.600000023841857910e+00,9.651240110397338867e-01
1.639999985694885254e+00,1.312927246093750000e+00
1.680000066757202148e+00,1.781159996986389160e+00
1.720000028610229492e+00,2.410259962081909180e+00
1.759999990463256836e+00,3.209618568420410156e+00
1.799999952316284180e+00,3.999973297119140625e+00
1.840000033378601074e+00,2.467971563339233398e+00
1.879999995231628418e+00,3.089334726333618164e+00
1.920000076293945312e+00,3.951104879379272461e+00
1.960000038146972656e+00,4.902319908142089844e+00
2.000000000000000000e+00,5.977520465850830078e+00
2.039999961853027344e+00,7.224024772644042969e+00
2.079999923706054688e+00,8.721518516540527344e+00
2.119999885559082031e+00,8.246127128601074219e+00
2.160000085830688477e+00,9.471893310546875000e+00
2.200000047683715820e+00,9.962264060974121094e+00
2.240000009536743164e+00,1.131328964233398438e+01
2.279999971389770508e+00,1.288510704040527344e+01
2.319999933242797852e+00,1.481193065643310547e+01
2.360000133514404297e+00,1.667588806152343750e+01
2.400000095367431641e+00,1.845541191101074219e+01
2.440000057220458984e+00,2.045131301879882812e+01
2.480000019073486328e+00,2.275537681579589844e+01
2.519999980926513672e+00,2.548629951477050781e+01
2.559999942779541016e+00,2.846418952941894531e+01
2.599999904632568359e+00,3.113735580444335938e+01
2.639999866485595703e+00,3.192845916748046875e+01
2.679999828338623047e+00,3.460731506347656250e+01
2.720000028610229492e+00,3.747848510742187500e+01
2.759999990463256836e+00,4.056794738769531250e+01
2.799999952316284180e+00,4.388134002685546875e+01
2.840000152587890625e+00,4.729011154174804688e+01
2.880000114440917969e+00,5.021118545532226562e+01
2.920000076293945312e+00,5.326058959960937500e+01
2.960000038146972656e+00,5.647801971435546875e+01
3.000000000000000000e+00,5.992527389526367188e+01
3.039999961853027344e+00,6.212062835693359375e+01
3.079999923706054688e+00,6.564514160156250000e+01
3.119999885559082031e+00,6.929163360595703125e+01
3.159999847412109375e+00,7.231724548339843750e+01
3.199999809265136719e+00,7.543702697753906250e+01
3.240000009536743164e+00,7.865537261962890625e+01
3.279999971389770508e+00,8.108145141601562500e+01
3.319999933242797852e+00,8.523474121093750000e+01
3.360000133514404297e+00,8.957221984863281250e+01
3.400000095367431641e+00,9.408541107177734375e+01
3.440000057220458984e+00,9.753668212890625000e+01
3.480000019073486328e+00,1.000127716064453125e+02
3.519999980926513672e+00,9.575538635253906250e+01
3.559999942779541016e+00,9.821941375732421875e+01
3.599999904632568359e+00,1.007835998535156250e+02
3.639999866485595703e+00,1.033814697265625000e+02
3.679999828338623047e+00,1.060162963867187500e+02
3.719999790191650391e+00,1.051801986694335938e+02
3.759999752044677734e+00,1.078839874267578125e+02
3.800000190734863281e+00,1.102354125976562500e+02
3.840000152587890625e+00,1.123468933105468750e+02
3.880000114440917969e+00,1.144618377685546875e+02
3.920000076293945312e+00,1.171242523193359375e+02
3.960000038146972656e+00,1.199936981201171875e+02
4.000000000000000000e+00,1.210218887329101562e+02
4.039999961853027344e+00,1.238170318603515625e+02
4.079999923706054688e+00,1.266419296264648438e+02
4.119999885559082031e+00,1.294926147460937500e+02
4.159999847412109375e+00,1.323411102294921875e+02
4.199999809265136719e+00,1.347752532958984375e+02
4.239999771118164062e+00,1.372206878662109375e+02
4.279999732971191406e+00,1.396845245361328125e+02
4.320000171661376953e+00,1.358932647705078125e+02
4.360000133514404297e+00,1.361602172851562500e+02
4.400000095367431641e+00,1.382880706787109375e+02
4.440000057220458984e+00,1.404282379150390625e+02
4.480000019073486328e+00,1.425943145751953125e+02
4.519999980926513672e+00,1.447683715820312500e+02
4.559999942779541016e+00,1.469363098144531250e+02
4.599999904632568359e+00,1.445232849121093750e+02
4.639999866485595703e+00,1.465137634277343750e+02
4.679999828338623047e+00,1.482860107421875000e+02
4.719999790191650391e+00,1.500790405273437500e+02
4.759999752044677734e+00,1.518718872070312500e+02
4.799999713897705078e+00,1.536656951904296875e+02
4.840000152587890625e+00,1.554497680664062500e+02
4.880000114440917969e+00,1.572294921875000000e+02
4.920000076293945312e+00,1.568708190917968750e+02
4.960000038146972656e+00,1.586220550537109375e+02
5.000000000000000000e+00,1.603295288085937500e+02
5.039999961853027344e+00,1.621480560302734375e+02
5.079999923706054688e+00,1.638666076660156250e+02
5.119999885559082031e+00,1.655995941162109375e+02
5.159999847412109375e+00,1.673278961181640625e+02
5.199999809265136719e+00,1.690493011474609375e+02
5.239999771118164062e+00,1.707654266357421875e+02
5.279999732971191406e+00,1.724814147949218750e+02
5.320000171661376953e+00,1.741761779785156250e+02
5.360000133514404297e+00,1.758701324462890625e+02
5.400000095367431641e+00,1.775599212646484375e+02
5.440000057220458984e+00,1.792434997558593750e+02
5.480000019073486328e+00,1.809246520996093750e+02
5.519999980926513672e+00,1.826315002441406250e+02
5.559999942779541016e+00,1.842162322998046875e+02
5.599999904632568359e+00,1.856719818115234375e+02
5.639999866485595703e+00,1.871216583251953125e+02
5.679999828338623047e+00,1.885670471191406250e+02
5.719999790191650391e+00,1.899903869628906250e+02
5.759999752044677734e+00,1.914096221923828125e+02
5.799999713897705078e+00,1.928094482421875000e+02
5.839999675750732422e+00,1.941908111572265625e+02
5.879999637603759766e+00,1.955676574707031250e+02
5.919999599456787109e+00,1.969397430419921875e+02
5.960000038146972656e+00,1.983071441650390625e+02
6.000000000000000000e+00,1.995686340332031250e+02
6.039999961853027344e+00,2.007220611572265625e+02
6.079999923706054688e+00,2.018692169189453125e+02
6.119999885559082031e+00,2.029092407226562500e+02
6.159999847412109375e+00,2.038805694580078125e+02
6.199999809265136719e+00,2.048523864746093750e+02
6.239999771118164062e+00,2.058256225585937500e+02
6.279999732971191406e+00,2.067925567626953125e+02
6.319999694824218750e+00,2.077770996093750000e+02
6.359999656677246094e+00,2.087554473876953125e+02
6.399999618530273438e+00,2.097234039306640625e+02
6.439999580383300781e+00,2.106812896728515625e+02
6.480000019073486328e+00,2.116335144042968750e+02
6.519999980926513672e+00,2.125557250976562500e+02
6.559999942779541016e+00,2.134723663330078125e+02
6.599999904632568359e+00,2.143793334960937500e+02
6.639999866485595703e+00,2.152767028808593750e+02
6.679999828338623047e+00,2.161687011718750000e+02
6.719999790191650391e+00,2.170241699218750000e+02
6.759999752044677734e+00,2.177855224609375000e+02
6.799999713897705078e+00,2.185328216552734375e+02
6.839999675750732422e+00,2.192664642333984375e+02
6.879999637603759766e+00,2.199946746826171875e+02
6.919999599456787109e+00,2.207324829101562500e+02
6.959999561309814453e+00,2.214652404785156250e+02
7.000000000000000000e+00,2.221350097656250000e+02
7.039999961853027344e+00,2.227410888671875000e+02
7.079999923706054688e+00,2.233430328369140625e+02
7.119999885559082031e+00,2.227287902832031250e+02
7.159999847412109375e+00,2.232837219238281250e+02
7.199999809265136719e+00,2.238521728515625000e+02
7.239999771118164062e+00,2.244348907470703125e+02
7.279999732971191406e+00,2.250128173828125000e+02
7.319999694824218750e+00,2.256153411865234375e+02
7.359999656677246094e+00,2.262130432128906250e+02
7.399999618530273438e+00,2.267999877929687500e+02
7.439999580383300781e+00,2.273762054443359375e+02
7.479999542236328125e+00,2.279482421875000000e+02
7.519999980926513672e+00,2.285023040771484375e+02
7.559999942779541016e+00,2.290521087646484375e+02
7.599999904632568359e+00,2.295914154052734375e+02
7.639999866485595703e+00,2.301198577880859375e+02
7.679999828338623047e+00,2.306445312500000000e+02
7.719999790191650391e+00,2.311585388183593750e+02
7.759999752044677734e+00,2.316691589355468750e+02
7.799999713897705078e+00,2.321702423095703125e+02
7.839999675750732422e+00,2.326612243652343750e+02
7.879999637603759766e+00,2.331484985351562500e+02
7.919999599456787109e+00,2.336384735107421875e+02
7.959999561309814453e+00,2.341248168945312500e+02
7.999999523162841797e+00,2.345942687988281250e+02
8.039999961853027344e+00,2.350470123291015625e+02
8.079999923706054688e+00,2.354965057373046875e+02
8.119999885559082031e+00,2.359397430419921875e+02
8.159999847412109375e+00,2.363193969726562500e+02
8.199999809265136719e+00,2.366847229003906250e+02
8.239999771118164062e+00,2.370446624755859375e+02
8.279999732971191406e+00,2.374278717041015625e+02
8.319999694824218750e+00,2.378078002929687500e+02
8.359999656677246094e+00,2.381848449707031250e+02
8.399999618530273438e+00,2.385431060791015625e+02
8.439999580383300781e+00,2.388832397460937500e+02
8.479999542236328125e+00,2.392204742431640625e+02
8.520000457763671875e+00,2.395656738281250000e+02
8.560000419616699219e+00,2.399079132080078125e+02
8.600000381469726562e+00,2.402221527099609375e+02
8.640000343322753906e+00,2.405081024169921875e+02
8.680000305175781250e+00,2.407912139892578125e+02
8.720000267028808594e+00,2.410630035400390625e+02
8.760000228881835938e+00,2.413320922851562500e+02
8.800000190734863281e+00,2.415619659423828125e+02
8.840000152587890625e+00,2.417526092529296875e+02
8.880000114440917969e+00,2.419403381347656250e+02
8.920000076293945312e+00,2.421294708251953125e+02
8.960000038146972656e+00,2.422821807861328125e+02
9.000000000000000000e+00,2.423666381835937500e+02
9.039999961853027344e+00,2.424015350341796875e+02
9.079999923706054688e+00,2.424335174560546875e+02
9.119999885559082031e+00,2.425077209472656250e+02
9.159999847412109375e+00,2.427102661132812500e+02
9.199999809265136719e+00,2.428561401367187500e+02
9.239999771118164062e+00,2.429450836181640625e+02
9.279999732971191406e+00,2.430310821533203125e+02
9.319999694824218750e+00,2.431025695800781250e+02
9.359999656677246094e+00,2.431710510253906250e+02
9.399999618530273438e+00,2.431777343750000000e+02
9.439999580383300781e+00,2.431224670410156250e+02
9.479999542236328125e+00,2.430640869140625000e+02
9.519999504089355469e+00,2.430054473876953125e+02
9.560000419616699219e+00,2.429439697265625000e+02
9.600000381469726562e+00,2.426821594238281250e+02
9.640000343322753906e+00,2.422802886962890625e+02
9.680000305175781250e+00,2.420569152832031250e+02
9.720000267028808594e+00,2.418463134765625000e+02
9.760000228881835938e+00,2.416325378417968750e+02
9.800000190734863281e+00,2.410783386230468750e+02
9.840000152587890625e+00,2.401764068603515625e+02
9.880000114440917969e+00,2.392493743896484375e+02
9.920000076293945312e+00,2.383276214599609375e+02
9.960000038146972656e+00,2.378635406494140625e+02
1.000000000000000000e+01,2.351765441894531250e+02
1.003999996185302734e+01,2.299233551025390625e+02
1.007999992370605469e+01,2.246450195312500000e+02
1.011999988555908203e+01,2.193488159179687500e+02
1.015999984741210938e+01,2.140286254882812500e+02
1.019999980926513672e+01,2.081359558105468750e+02
1.023999977111816406e+01,2.084893951416015625e+02
1.027999973297119141e+01,2.088347167968750000e+02
1.032000064849853516e+01,2.091491699218750000e+02
1.036000061035156250e+01,2.094557189941406250e+02
1.040000057220458984e+01,2.105332641601562500e+02
1.044000053405761719e+01,2.120208740234375000e+02
1.048000049591064453e+01,2.123871765136718750e+02
1.052000045776367188e+01,2.127679443359375000e+02
1.056000041961669922e+01,2.131436920166015625e+02
1.060000038146972656e+01,2.130293884277343750e+02
1.064000034332275391e+01,2.124281921386718750e+02
1.068000030517578125e+01,2.118255157470703125e+02
1.072000026702880859e+01,2.111898803710937500e+02
1.076000022888183594e+01,2.105531921386718750e+02
1.080000019073486328e+01,2.098221740722656250e+02
1.084000015258789062e+01,2.089835357666015625e+02
1.088000011444091797e+01,2.081382598876953125e+02
1.092000007629394531e+01,2.073154144287109375e+02
1.096000003814697266e+01,2.064926147460937500e+02
1.100000000000000000e+01,2.055826263427734375e+02
1.103999996185302734e+01,2.045857849121093750e+02
1.107999992370605469e+01,2.035900421142578125e+02
1.111999988555908203e+01,2.035703735351562500e+02
1.115999984741210938e+01,2.035484313964843750e+02
1.119999980926513672e+01,2.031118469238281250e+02
1.123999977111816406e+01,2.022586669921875000e+02
1.127999973297119141e+01,2.014002838134765625e+02
1.131999969482421875e+01,2.005299224853515625e+02
1.136000061035156250e+01,1.996546936035156250e+02
1.140000057220458984e+01,1.977858734130859375e+02
1.144000053405761719e+01,1.949178619384765625e+02
1.148000049591064453e+01,1.920368194580078125e+02
1.152000045776367188e+01,1.889672546386718750e+02
1.156000041961669922e+01,1.814889221191406250e+02
1.160000038146972656e+01,1.791882934570312500e+02
1.164000034332275391e+01,1.785787048339843750e+02
1.168000030517578125e+01,1.779633941650390625e+02
1.172000026702880859e+01,1.773338470458984375e+02
1.176000022888183594e+01,1.766966247558593750e+02
1.180000019073486328e+01,1.759869079589843750e+02
1.184000015258789062e+01,1.752082214355468750e+02
1.188000011444091797e+01,1.744286956787109375e+02
1.192000007629394531e+01,1.736474609375000000e+02
1.196000003814697266e+01,1.728600158691406250e+02
1.200000000000000000e+01,1.719481658935546875e+02
1.203999996185302734e+01,1.709123840332031250e+02
1.207999992370605469e+01,1.701892395019531250e+02
1.211999988555908203e+01,1.703684539794921875e+02
1.215999984741210938e+01,1.705469665527343750e+02
1.219999980926513672e+01,1.706718597412109375e+02
1.223999977111816406e+01,1.707429809570312500e+02
1.227999973297119141e+01,1.708133697509765625e+02
1.231999969482421875e+01,1.708960113525390625e+02
1.236000061035156250e+01,1.709780731201171875e+02
1.240000057220458984e+01,1.709691314697265625e+02
1.244000053405761719e+01,1.708695983886718750e+02
1.248000049591064453e+01,1.707691955566406250e+02
1.252000045776367188e+01,1.706546478271484375e+02
1.256000041961669922e+01,1.705395507812500000e+02
1.260000038146972656e+01,1.703683624267578125e+02
1.264000034332275391e+01,1.701412353515625000e+02
1.268000030517578125e+01,1.699136199951171875e+02
1.272000026702880859e+01,1.696902313232421875e+02
1.276000022888183594e+01,1.694661407470703125e+02
1.280000019073486328e+01,1.692039184570312500e+02
1.284000015258789062e+01,1.689035034179687500e+02
1.288000011444091797e+01,1.686030426025390625e+02
1.292000007629394531e+01,1.682937774658203125e+02
1.296000003814697266e+01,1.679840240478515625e+02
1.300000000000000000e+01,1.675006103515625000e+02
1.303999996185302734e+01,1.668439941406250000e+02
1.307999992370605469e+01,1.661876373291015625e+02
1.311999988555908203e+01,1.655266876220703125e+02
1.315999984741210938e+01,1.648639526367187500e+02
1.319999980926513672e+01,1.641002655029296875e+02
1.323999977111816406e+01,1.632364044189453125e+02
1.327999973297119141e+01,1.622203521728515625e+02
1.331999969482421875e+01,1.600127716064453125e+02
1.335999965667724609e+01,1.590721893310546875e+02
1.340000057220458984e+01,1.584158782958984375e+02
1.344000053405761719e+01,1.579929962158203125e+02
1.348000049591064453e+01,1.575695190429687500e+02
1.352000045776367188e+01,1.571306152343750000e+02
1.356000041961669922e+01,1.566912994384765625e+02
1.360000038146972656e+01,1.562002410888671875e+02
1.364000034332275391e+01,1.556578063964843750e+02
1.368000030517578125e+01,1.551147155761718750e+02
1.372000026702880859e+01,1.545716552734375000e+02
1.376000022888183594e+01,1.540281982421875000e+02
1.380000019073486328e+01,1.534358215332031250e+02
1.384000015258789062e+01,1.523619079589843750e+02
1.388000011444091797e+01,1.517739562988281250e+02
1.392000007629394531e+01,1.514233398437500000e+02
1.396000003814697266e+01,1.510731658935546875e+02
1.400000000000000000e+01,1.507571258544921875e+02
1.403999996185302734e+01,1.504752197265625000e+02
1.407999992370605469e+01,1.501928405761718750e+02
1.411999988555908203e+01,1.499084167480468750e+02
1.415999984741210938e+01,1.496236267089843750e+02
1.419999980926513672e+01,1.493347473144531250e+02
1.423999977111816406e+01,1.490417480468750000e+02
1.427999973297119141e+01,1.487484130859375000e+02
1.431999969482421875e+01,1.484629364013671875e+02
1.435999965667724609e+01,1.481771545410156250e+02
1.439999961853027344e+01,1.478731079101562500e+02
1.444000053405761719e+01,1.475464019775390625e+02
1.448000049591064453e+01,1.472196502685546875e+02
1.452000045776367188e+01,1.468852844238281250e+02
1.456000041961669922e+01,1.465507659912109375e+02
1.460000038146972656e+01,1.462110290527343750e+02
1.464000034332275391e+01,1.458659515380859375e+02
1.468000030517578125e+01,1.455208587646484375e+02
1.472000026702880859e+01,1.451740264892578125e+02
1.476000022888183594e+01,1.448271179199218750e+02
1.480000019073486328e+01,1.444772338867187500e+02
1.484000015258789062e+01,1.441243896484375000e+02
1.488000011444091797e+01,1.437712402343750000e+02
1.492000007629394531e+01,1.434282379150390625e+02
1.496000003814697266e+01,1.430851898193359375e+02
1.500000000000000000e+01,1.427407073974609375e+02
1.503999996185302734e+01,1.423948669433593750e+02
1.507999992370605469e+01,1.420489501953125000e+02
1.511999988555908203e+01,1.416979217529296875e+02
1.515999984741210938e+01,1.413468627929687500e+02
1.519999980926513672e+01,1.409918823242187500e+02
1.523999977111816406e+01,1.406329345703125000e+02
1.527999973297119141e+01,1.402739868164062500e+02
1.531999969482421875e+01,1.399112091064453125e+02
1.535999965667724609e+01,1.395484313964843750e+02
1.539999961853027344e+01,1.391862945556640625e+02
1.544000053405761719e+01,1.388247680664062500e+02
1.548000049591064453e+01,1.384632720947265625e+02
1.552000045776367188e+01,1.381034545898437500e+02
1.556000041961669922e+01,1.377435455322265625e+02
1.560000038146972656e+01,1.373918151855468750e+02
1.564000034332275391e+01,1.370481719970703125e+02
1.568000030517578125e+01,1.367044677734375000e+02
1.572000026702880859e+01,1.363457031250000000e+02
1.576000022888183594e+01,1.359867553710937500e+02
1.580000019073486328e+01,1.356212158203125000e+02
1.584000015258789062e+01,1.352489929199218750e+02
1.588000011444091797e+01,1.348742675781250000e+02
1.592000007629394531e+01,1.344997711181640625e+02
1.596000003814697266e+01,1.341253356933593750e+02
1.600000000000000000e+01,1.337534027099609375e+02
1.603999900817871094e+01,1.333839111328125000e+02
1.607999992370605469e+01,1.330144195556640625e+02
1.611999893188476562e+01,1.326526031494140625e+02
1.615999984741210938e+01,1.322906951904296875e+02
1.619999885559082031e+01,1.319288177490234375e+02
1.623999977111816406e+01,1.315667724609375000e+02
1.627999877929687500e+01,1.312047576904296875e+02
1.631999969482421875e+01,1.308480682373046875e+02
1.635999870300292969e+01,1.304912719726562500e+02
1.639999961853027344e+01,1.301344299316406250e+02
1.643999862670898438e+01,1.297776184082031250e+02
1.647999954223632812e+01,1.294206237792968750e+02
1.652000045776367188e+01,1.290513610839843750e+02
1.655999946594238281e+01,1.286821594238281250e+02
1.660000038146972656e+01,1.283129577636718750e+02
1.663999938964843750e+01,1.279438018798828125e+02
1.668000030517578125e+01,1.275746231079101562e+02
1.671999931335449219e+01,1.272325439453125000e+02
1.676000022888183594e+01,1.268903503417968750e+02
1.679999923706054688e+01,1.265479354858398438e+02
1.684000015258789062e+01,1.262054214477539062e+02
1.687999916076660156e+01,1.258628005981445312e+02
1.692000007629394531e+01,1.255067596435546875e+02
1.695999908447265625e+01,1.251506729125976562e+02
1.700000000000000000e+01,1.248047637939453125e+02
1.703999900817871094e+01,1.244688415527343750e+02
1.707999992370605469e+01,1.241328125000000000e+02
1.711999893188476562e+01,1.237926635742187500e+02
1.715999984741210938e+01,1.234524688720703125e+02
1.719999885559082031e+01,1.231122741699218750e+02
1.723999977111816406e+01,1.227721099853515625e+02
1.727999877929687500e+01,1.224478683471679688e+02
1.731999969482421875e+01,1.221353302001953125e+02
1.735999870300292969e+01,1.218227615356445312e+02
1.739999961853027344e+01,1.215099792480468750e+02
1.743999862670898438e+01,1.211965866088867188e+02
1.747999954223632812e+01,1.208817291259765625e+02
