# Start of Energy Bin (keV), Effective Area (cm^2)
1.600000023841857910e+00,8.981297016143798828e-01
1.639999985694885254e+00,1.219513654708862305e+00
1.680000066757202148e+00,1.651328563690185547e+00
1.720000028610229492e+00,2.230352640151977539e+00
1.759999990463256836e+00,2.964398384094238281e+00
1.799999952316284180e+00,3.684196472167968750e+00
1.840000033378601074e+00,2.265685319900512695e+00
1.879999995231628418e+00,2.833457708358764648e+00
1.920000076293945312e+00,3.628949403762817383e+00
1.960000038146972656e+00,4.508917808532714844e+00
2.000000000000000000e+00,5.507397174835205078e+00
2.039999961853027344e+00,6.669659614562988281e+00
2.079999923706054688e+00,8.068826675415039062e+00
2.119999885559082031e+00,7.636441230773925781e+00
2.160000085830688477e+00,8.775078773498535156e+00
2.200000047683715820e+00,9.231494903564453125e+00
2.240000009536743164e+00,1.048400688171386719e+01
2.279999971389770508e+00,1.194140815734863281e+01
2.319999933242797852e+00,1.373292541503906250e+01
2.360000133514404297e+00,1.546763706207275391e+01
2.400000095367431641e+00,1.712487411499023438e+01
2.440000057220458984e+00,1.898359298706054688e+01
2.480000019073486328e+00,2.112976646423339844e+01
2.519999980926513672e+00,2.367492103576660156e+01
2.559999942779541016e+00,2.644988632202148438e+01
2.599999904632568359e+00,2.894069290161132812e+01
2.639999866485595703e+00,2.968275642395019531e+01
2.679999828338623047e+00,3.217650222778320312e+01
2.720000028610229492e+00,3.484585571289062500e+01
2.759999990463256836e+00,3.771815109252929688e+01
2.799999952316284180e+00,4.079808807373046875e+01
2.840000152587890625e+00,4.396859741210937500e+01
2.880000114440917969e+00,4.668705368041992188e+01
2.920000076293945312e+00,4.952485656738281250e+01
2.960000038146972656e+00,5.251917266845703125e+01
3.000000000000000000e+00,5.562741088867187500e+01
3.039999961853027344e+00,5.746369934082031250e+01
3.079999923706054688e+00,6.051084899902343750e+01
3.119999885559082031e+00,6.364726257324218750e+01
3.159999847412109375e+00,6.619247436523437500e+01
3.199999809265136719e+00,6.880477142333984375e+01
3.240000009536743164e+00,7.148737335205078125e+01
3.279999971389770508e+00,7.343081665039062500e+01
3.319999933242797852e+00,7.767784118652343750e+01
3.360000133514404297e+00,8.213957977294921875e+01
3.400000095367431641e+00,8.680218505859375000e+01
3.440000057220458984e+00,9.011948394775390625e+01
3.480000019073486328e+00,9.240589904785156250e+01
3.519999980926513672e+00,8.845099639892578125e+01
3.559999942779541016e+00,9.070511627197265625e+01
3.599999904632568359e+00,9.305061340332031250e+01
3.639999866485595703e+00,9.542607116699218750e+01
3.679999828338623047e+00,9.783438873291015625e+01
3.719999790191650391e+00,9.706134033203125000e+01
3.759999752044677734e+00,9.955479431152343750e+01
3.800000190734863281e+00,1.017228088378906250e+02
3.840000152587890625e+00,1.036690979003906250e+02
3.880000114440917969e+00,1.056183929443359375e+02
3.920000076293945312e+00,1.080658111572265625e+02
3.960000038146972656e+00,1.107074737548828125e+02
4.000000000000000000e+00,1.116500015258789062e+02
4.039999961853027344e+00,1.142222595214843750e+02
4.079999923706054688e+00,1.168216857910156250e+02
4.119999885559082031e+00,1.194563217163085938e+02
4.159999847412109375e+00,1.220891494750976562e+02
4.199999809265136719e+00,1.243397369384765625e+02
4.239999771118164062e+00,1.266006927490234375e+02
4.279999732971191406e+00,1.288787841796875000e+02
4.320000171661376953e+00,1.253736648559570312e+02
4.360000133514404297e+00,1.256162109375000000e+02
4.400000095367431641e+00,1.275765075683593750e+02
4.440000057220458984e+00,1.295478973388671875e+02
4.480000019073486328e+00,1.315431060791015625e+02
4.519999980926513672e+00,1.335662689208984375e+02
4.559999942779541016e+00,1.355843505859375000e+02
4.599999904632568359e+00,1.333751220703125000e+02
4.639999866485595703e+00,1.352295227050781250e+02
4.679999828338623047e+00,1.368829650878906250e+02
4.719999790191650391e+00,1.385505676269531250e+02
4.759999752044677734e+00,1.402182769775390625e+02
4.799999713897705078e+00,1.418869934082031250e+02
4.840000152587890625e+00,1.435467681884765625e+02
4.880000114440917969e+00,1.452028808593750000e+02
4.920000076293945312e+00,1.448760681152343750e+02
4.960000038146972656e+00,1.464978485107421875e+02
5.000000000000000000e+00,1.480791320800781250e+02
5.039999961853027344e+00,1.497144012451171875e+02
5.079999923706054688e+00,1.512248229980468750e+02
5.119999885559082031e+00,1.527394104003906250e+02
5.159999847412109375e+00,1.542480926513671875e+02
5.199999809265136719e+00,1.557485046386718750e+02
5.239999771118164062e+00,1.572422027587890625e+02
5.279999732971191406e+00,1.587341613769531250e+02
5.320000171661376953e+00,1.602277526855468750e+02
5.360000133514404297e+00,1.617194213867187500e+02
5.400000095367431641e+00,1.632058410644531250e+02
5.440000057220458984e+00,1.646850891113281250e+02
5.480000019073486328e+00,1.661609649658203125e+02
5.519999980926513672e+00,1.676568603515625000e+02
5.559999942779541016e+00,1.690394592285156250e+02
5.599999904632568359e+00,1.703022766113281250e+02
5.639999866485595703e+00,1.715581970214843750e+02
5.679999828338623047e+00,1.728092041015625000e+02
5.719999790191650391e+00,1.740240783691406250e+02
5.759999752044677734e+00,1.752340545654296875e+02
5.799999713897705078e+00,1.764243469238281250e+02
5.839999675750732422e+00,1.775958862304687500e+02
5.879999637603759766e+00,1.787621154785156250e+02
5.919999599456787109e+00,1.799268341064453125e+02
5.960000038146972656e+00,1.810861663818359375e+02
6.000000000000000000e+00,1.821763916015625000e+02
6.039999961853027344e+00,1.831961364746093750e+02
6.079999923706054688e+00,1.842097778320312500e+02
6.119999885559082031e+00,1.851393737792968750e+02
6.159999847412109375e+00,1.860060119628906250e+02
6.199999809265136719e+00,1.868728027343750000e+02
6.239999771118164062e+00,1.877404022216796875e+02
6.279999732971191406e+00,1.886020965576171875e+02
6.319999694824218750e+00,1.894408874511718750e+02
6.359999656677246094e+00,1.902735290527343750e+02
6.399999618530273438e+00,1.910954284667968750e+02
6.439999580383300781e+00,1.919069213867187500e+02
6.480000019073486328e+00,1.927127227783203125e+02
6.519999980926513672e+00,1.935484313964843750e+02
6.559999942779541016e+00,1.943790283203125000e+02
6.599999904632568359e+00,1.951999206542968750e+02
6.639999866485595703e+00,1.960111999511718750e+02
6.679999828338623047e+00,1.968174896240234375e+02
6.719999790191650391e+00,1.975715179443359375e+02
6.759999752044677734e+00,1.982396697998046875e+02
6.799999713897705078e+00,1.988934783935546875e+02
6.839999675750732422e+00,1.995332794189453125e+02
6.879999637603759766e+00,2.001679229736328125e+02
6.919999599456787109e+00,2.007706146240234375e+02
6.959999561309814453e+00,2.013682403564453125e+02
7.000000000000000000e+00,2.019140930175781250e+02
7.039999961853027344e+00,2.024075927734375000e+02
7.079999923706054688e+00,2.028970642089843750e+02
7.119999885559082031e+00,2.023272399902343750e+02
7.159999847412109375e+00,2.028195037841796875e+02
7.199999809265136719e+00,2.033182373046875000e+02
7.239999771118164062e+00,2.038240509033203125e+02
7.279999732971191406e+00,2.043254089355468750e+02
7.319999694824218750e+00,2.048311004638671875e+02
7.359999656677246094e+00,2.053322448730468750e+02
7.399999618530273438e+00,2.058209686279296875e+02
7.439999580383300781e+00,2.062973175048828125e+02
7.479999542236328125e+00,2.067696685791015625e+02
7.519999980926513672e+00,2.072232818603515625e+02
7.559999942779541016e+00,2.076727752685546875e+02
7.599999904632568359e+00,2.081075286865234375e+02
7.639999866485595703e+00,2.085271911621093750e+02
7.679999828338623047e+00,2.089432067871093750e+02
7.719999790191650391e+00,2.093600158691406250e+02
7.759999752044677734e+00,2.097734680175781250e+02
7.799999713897705078e+00,2.101700439453125000e+02
7.839999675750732422e+00,2.105490722656250000e+02
7.879999637603759766e+00,2.109244842529296875e+02
7.919999599456787109e+00,2.112954101562500000e+02
7.959999561309814453e+00,2.116627349853515625e+02
7.999999523162841797e+00,2.119924011230468750e+02
8.039999961853027344e+00,2.122843933105468750e+02
8.079999923706054688e+00,2.125730133056640625e+02
8.119999885559082031e+00,2.128655700683593750e+02
8.159999847412109375e+00,2.131003417968750000e+02
8.199999809265136719e+00,2.132996978759765625e+02
8.239999771118164062e+00,2.134899749755859375e+02
8.279999732971191406e+00,2.137561035156250000e+02
8.319999694824218750e+00,2.140126190185546875e+02
8.359999656677246094e+00,2.142661437988281250e+02
8.399999618530273438e+00,2.144751892089843750e+02
8.439999580383300781e+00,2.146402587890625000e+02
8.479999542236328125e+00,2.148020629882812500e+02
8.520000457763671875e+00,2.149812011718750000e+02
8.560000419616699219e+00,2.151571044921875000e+02
8.600000381469726562e+00,2.152867889404296875e+02
8.640000343322753906e+00,2.153699035644531250e+02
8.680000305175781250e+00,2.154496917724609375e+02
8.720000267028808594e+00,2.155474090576171875e+02
8.760000228881835938e+00,2.156419677734375000e+02
8.800000190734863281e+00,2.156976318359375000e+02
8.840000152587890625e+00,2.157143707275390625e+02
8.880000114440917969e+00,2.157277526855468750e+02
8.920000076293945312e+00,2.157415161132812500e+02
8.960000038146972656e+00,2.157221221923828125e+02
9.000000000000000000e+00,2.156510314941406250e+02
9.039999961853027344e+00,2.155449523925781250e+02
9.079999923706054688e+00,2.154356384277343750e+02
9.119999885559082031e+00,2.153600616455078125e+02
9.159999847412109375e+00,2.154041442871093750e+02
9.199999809265136719e+00,2.154082946777343750e+02
9.239999771118164062e+00,2.153722839355468750e+02
9.279999732971191406e+00,2.153327941894531250e+02
9.319999694824218750e+00,2.152957153320312500e+02
9.359999656677246094e+00,2.152550964355468750e+02
9.399999618530273438e+00,2.151646270751953125e+02
9.439999580383300781e+00,2.150240936279296875e+02
9.479999542236328125e+00,2.148800048828125000e+02
9.519999504089355469e+00,2.147641906738281250e+02
9.560000419616699219e+00,2.146449737548828125e+02
9.600000381469726562e+00,2.143523254394531250e+02
9.640000343322753906e+00,2.139395599365234375e+02
9.680000305175781250e+00,2.136835479736328125e+02
9.720000267028808594e+00,2.134111633300781250e+02
9.760000228881835938e+00,2.131351623535156250e+02
9.800000190734863281e+00,2.125304260253906250e+02
9.840000152587890625e+00,2.115906829833984375e+02
9.880000114440917969e+00,2.106279144287109375e+02
9.920000076293945312e+00,2.096942901611328125e+02
9.960000038146972656e+00,2.091590270996093750e+02
1.000000000000000000e+01,2.066004943847656250e+02
1.003999996185302734e+01,2.017267456054687500e+02
1.007999992370605469e+01,1.968395385742187500e+02
1.011999988555908203e+01,1.919694824218750000e+02
1.015999984741210938e+01,1.870862426757812500e+02
1.019999980926513672e+01,1.816983337402343750e+02
1.023999977111816406e+01,1.821883544921875000e+02
1.027999973297119141e+01,1.826716003417968750e+02
1.032000064849853516e+01,1.830878295898437500e+02
1.036000061035156250e+01,1.834973449707031250e+02
1.040000057220458984e+01,1.846016540527343750e+02
1.044000053405761719e+01,1.860474853515625000e+02
1.048000049591064453e+01,1.863937835693359375e+02
1.052000045776367188e+01,1.867818603515625000e+02
1.056000041961669922e+01,1.871646728515625000e+02
1.060000038146972656e+01,1.870611877441406250e+02
1.064000034332275391e+01,1.864743499755859375e+02
1.068000030517578125e+01,1.858855895996093750e+02
1.072000026702880859e+01,1.852524719238281250e+02
1.076000022888183594e+01,1.846179504394531250e+02
1.080000019073486328e+01,1.838885803222656250e+02
1.084000015258789062e+01,1.830529479980468750e+02
1.088000011444091797e+01,1.822113800048828125e+02
1.092000007629394531e+01,1.813418731689453125e+02
1.096000003814697266e+01,1.804727630615234375e+02
1.100000000000000000e+01,1.795157775878906250e+02
1.103999996185302734e+01,1.784716491699218750e+02
1.107999992370605469e+01,1.774293212890625000e+02
1.111999988555908203e+01,1.773706359863281250e+02
1.115999984741210938e+01,1.773100433349609375e+02
1.119999980926513672e+01,1.768383483886718750e+02
1.123999977111816406e+01,1.759546508789062500e+02
1.127999973297119141e+01,1.750675659179687500e+02
1.131999969482421875e+01,1.741861114501953125e+02
1.136000061035156250e+01,1.733013916015625000e+02
1.140000057220458984e+01,1.715667419433593750e+02
1.144000053405761719e+01,1.689786682128906250e+02
1.148000049591064453e+01,1.663822479248046875e+02
1.152000045776367188e+01,1.635930023193359375e+02
1.156000041961669922e+01,1.570802917480468750e+02
1.160000038146972656e+01,1.550659332275390625e+02
1.164000034332275391e+01,1.545252532958984375e+02
1.168000030517578125e+01,1.539797973632812500e+02
1.172000026702880859e+01,1.534565734863281250e+02
1.176000022888183594e+01,1.529266510009765625e+02
1.180000019073486328e+01,1.522867584228515625e+02
1.184000015258789062e+01,1.515404510498046875e+02
1.188000011444091797e+01,1.507939910888671875e+02
1.192000007629394531e+01,1.500328369140625000e+02
1.196000003814697266e+01,1.492669982910156250e+02
1.200000000000000000e+01,1.483884735107421875e+02
1.203999996185302734e+01,1.473979644775390625e+02
1.207999992370605469e+01,1.467120361328125000e+02
1.211999988555908203e+01,1.468974304199218750e+02
1.215999984741210938e+01,1.470820770263671875e+02
1.219999980926513672e+01,1.472033996582031250e+02
1.223999977111816406e+01,1.472612304687500000e+02
1.227999973297119141e+01,1.473184509277343750e+02
1.231999969482421875e+01,1.473839111328125000e+02
1.236000061035156250e+01,1.474488677978515625e+02
1.240000057220458984e+01,1.474201660156250000e+02
1.244000053405761719e+01,1.472982177734375000e+02
1.248000049591064453e+01,1.471755676269531250e+02
1.252000045776367188e+01,1.470319061279296875e+02
1.256000041961669922e+01,1.468878479003906250e+02
1.260000038146972656e+01,1.466900024414062500e+02
1.264000034332275391e+01,1.464385833740234375e+02
1.268000030517578125e+01,1.461867980957031250e+02
1.272000026702880859e+01,1.459327392578125000e+02
1.276000022888183594e+01,1.456782531738281250e+02
1.280000019073486328e+01,1.453885803222656250e+02
1.284000015258789062e+01,1.450637054443359375e+02
1.288000011444091797e+01,1.447390136718750000e+02
1.292000007629394531e+01,1.444359130859375000e+02
1.296000003814697266e+01,1.441324768066406250e+02
1.300000000000000000e+01,1.436809234619140625e+02
1.303999996185302734e+01,1.430817260742187500e+02
1.307999992370605469e+01,1.424829559326171875e+02
1.311999988555908203e+01,1.418511657714843750e+02
1.315999984741210938e+01,1.412183074951171875e+02
1.319999980926513672e+01,1.405022277832031250e+02
1.323999977111816406e+01,1.397036437988281250e+02
1.327999973297119141e+01,1.388542785644531250e+02
1.331999969482421875e+01,1.369794921875000000e+02
1.335999965667724609e+01,1.362099151611328125e+02
1.340000057220458984e+01,1.356682434082031250e+02
1.344000053405761719e+01,1.353042907714843750e+02
1.348000049591064453e+01,1.349398651123046875e+02
1.352000045776367188e+01,1.345685424804687500e+02
1.356000041961669922e+01,1.341968383789062500e+02
1.360000038146972656e+01,1.337789459228515625e+02
1.364000034332275391e+01,1.333151702880859375e+02
1.368000030517578125e+01,1.328507995605468750e+02
1.372000026702880859e+01,1.323889465332031250e+02
1.376000022888183594e+01,1.319267272949218750e+02
1.380000019073486328e+01,1.314277496337890625e+02
1.384000015258789062e+01,1.305213928222656250e+02
1.388000011444091797e+01,1.300316162109375000e+02
1.392000007629394531e+01,1.297628173828125000e+02
1.396000003814697266e+01,1.294942321777343750e+02
1.400000000000000000e+01,1.292518615722656250e+02
1.403999996185302734e+01,1.290356597900390625e+02
1.407999992370605469e+01,1.288189544677734375e+02
1.411999988555908203e+01,1.285873413085937500e+02
1.415999984741210938e+01,1.283553161621093750e+02
1.419999980926513672e+01,1.281195373535156250e+02
1.423999977111816406e+01,1.278799743652343750e+02
1.427999973297119141e+01,1.276400604248046875e+02
1.431999969482421875e+01,1.274186019897460938e+02
1.435999965667724609e+01,1.271968231201171875e+02
1.439999961853027344e+01,1.269604110717773438e+02
1.444000053405761719e+01,1.267056121826171875e+02
1.448000049591064453e+01,1.264506759643554688e+02
1.452000045776367188e+01,1.261744384765625000e+02
1.456000041961669922e+01,1.258980102539062500e+02
1.460000038146972656e+01,1.256186141967773438e+02
1.464000034332275391e+01,1.253361663818359375e+02
1.468000030517578125e+01,1.250536117553710938e+02
1.472000026702880859e+01,1.247703170776367188e+02
1.476000022888183594e+01,1.244868774414062500e+02
1.480000019073486328e+01,1.242015533447265625e+02
1.484000015258789062e+01,1.239143371582031250e+02
1.488000011444091797e+01,1.236267547607421875e+02
1.492000007629394531e+01,1.233396911621093750e+02
1.496000003814697266e+01,1.230525512695312500e+02
1.500000000000000000e+01,1.227656631469726562e+02
1.503999996185302734e+01,1.224791107177734375e+02
1.507999992370605469e+01,1.221924438476562500e+02
1.511999988555908203e+01,1.219252166748046875e+02
1.515999984741210938e+01,1.216578140258789062e+02
1.519999980926513672e+01,1.213869552612304688e+02
1.523999977111816406e+01,1.211126174926757812e+02
1.527999973297119141e+01,1.208380889892578125e+02
1.531999969482421875e+01,1.205444946289062500e+02
1.535999965667724609e+01,1.202507629394531250e+02
1.539999961853027344e+01,1.199582061767578125e+02
1.544000053405761719e+01,1.196667785644531250e+02
1.548000049591064453e+01,1.193752822875976562e+02
1.552000045776367188e+01,1.190825576782226562e+02
1.556000041961669922e+01,1.187896652221679688e+02
1.560000038146972656e+01,1.185044479370117188e+02
1.564000034332275391e+01,1.182268524169921875e+02
1.568000030517578125e+01,1.179490966796875000e+02
1.572000026702880859e+01,1.176431121826171875e+02
1.576000022888183594e+01,1.173365631103515625e+02
1.580000019073486328e+01,1.170242538452148438e+02
1.584000015258789062e+01,1.167061538696289062e+02
1.588000011444091797e+01,1.163858489990234375e+02
1.592000007629394531e+01,1.160725936889648438e+02
1.596000003814697266e+01,1.157593307495117188e+02
1.600000000000000000e+01,1.154467010498046875e+02
1.603999900817871094e+01,1.151346664428710938e+02
1.607999992370605469e+01,1.148225784301757812e+02
1.611999893188476562e+01,1.145143051147460938e+02
1.615999984741210938e+01,1.142059326171875000e+02
1.619999885559082031e+01,1.138975219726562500e+02
1.623999977111816406e+01,1.135889663696289062e+02
1.627999877929687500e+01,1.132803955078125000e+02
1.631999969482421875e+01,1.129561004638671875e+02
1.635999870300292969e+01,1.126318359375000000e+02
1.639999961853027344e+01,1.123075866699218750e+02
1.643999862670898438e+01,1.119834365844726562e+02
1.647999954223632812e+01,1.116592407226562500e+02
1.652000045776367188e+01,1.113526687622070312e+02
1.655999946594238281e+01,1.110460586547851562e+02
1.660000038146972656e+01,1.107393951416015625e+02
1.663999938964843750e+01,1.104326629638671875e+02
1.668000030517578125e+01,1.101258544921875000e+02
1.671999931335449219e+01,1.098041229248046875e+02
1.676000022888183594e+01,1.094824218750000000e+02
1.679999923706054688e+01,1.091606826782226562e+02
1.684000015258789062e+01,1.088389739990234375e+02
1.687999916076660156e+01,1.085173416137695312e+02
1.692000007629394531e+01,1.082285003662109375e+02
1.695999908447265625e+01,1.079394989013671875e+02
1.700000000000000000e+01,1.076560974121093750e+02
1.703999900817871094e+01,1.073781433105468750e+02
1.707999992370605469e+01,1.071000137329101562e+02
1.711999893188476562e+01,1.067982482910156250e+02
1.715999984741210938e+01,1.064964599609375000e+02
1.719999885559082031e+01,1.061947479248046875e+02
1.723999977111816406e+01,1.058930511474609375e+02
1.727999877929687500e+01,1.056044692993164062e+02
1.731999969482421875e+01,1.053170776367187500e+02
1.735999870300292969e+01,1.050297470092773438e+02
1.739999961853027344e+01,1.047423095703125000e+02
1.743999862670898438e+01,1.044544372558593750e+02
1.747999954223632812e+01,1.041653900146484375e+02
