# Start of Energy Bin (keV), Effective Area (cm^2)
1.600000023841857910e+00,1.020694017410278320e+00
1.639999985694885254e+00,1.387473702430725098e+00
1.680000066757202148e+00,1.880693316459655762e+00
1.720000028610229492e+00,2.542545557022094727e+00
1.759999990463256836e+00,3.382367610931396484e+00
1.799999952316284180e+00,4.206445217132568359e+00
1.840000033378601074e+00,2.588158130645751953e+00
1.879999995231628418e+00,3.239729404449462891e+00
1.920000076293945312e+00,4.153985023498535156e+00
1.960000038146972656e+00,5.166760444641113281e+00
2.000000000000000000e+00,6.317647457122802734e+00
2.039999961853027344e+00,7.659311771392822266e+00
2.079999923706054688e+00,9.276148796081542969e+00
2.119999885559082031e+00,8.027399063110351562e+00
2.160000085830688477e+00,9.256041526794433594e+00
2.200000047683715820e+00,9.450268745422363281e+00
2.240000009536743164e+00,1.073369312286376953e+01
2.279999971389770508e+00,1.222783374786376953e+01
2.319999933242797852e+00,1.406126117706298828e+01
2.360000133514404297e+00,1.582952785491943359e+01
2.400000095367431641e+00,1.751780891418457031e+01
2.440000057220458984e+00,1.943221092224121094e+01
2.480000019073486328e+00,2.168235397338867188e+01
2.519999980926513672e+00,2.442034339904785156e+01
2.559999942779541016e+00,2.741880226135253906e+01
2.599999904632568359e+00,3.014187622070312500e+01
2.639999866485595703e+00,3.038725852966308594e+01
2.679999828338623047e+00,3.309121704101562500e+01
2.720000028610229492e+00,3.599804687500000000e+01
2.759999990463256836e+00,3.913841247558593750e+01
2.799999952316284180e+00,4.251310348510742188e+01
2.840000152587890625e+00,4.599930572509765625e+01
2.880000114440917969e+00,4.903060913085937500e+01
2.920000076293945312e+00,5.219656753540039062e+01
2.960000038146972656e+00,5.554882812500000000e+01
3.000000000000000000e+00,5.906156921386718750e+01
3.039999961853027344e+00,6.069147109985351562e+01
3.079999923706054688e+00,6.406776428222656250e+01
3.119999885559082031e+00,6.754739379882812500e+01
3.159999847412109375e+00,7.040588378906250000e+01
3.199999809265136719e+00,7.333854675292968750e+01
3.240000009536743164e+00,7.634903717041015625e+01
3.279999971389770508e+00,7.823353576660156250e+01
3.319999933242797852e+00,8.307773590087890625e+01
3.360000133514404297e+00,8.818084716796875000e+01
3.400000095367431641e+00,9.352571868896484375e+01
3.440000057220458984e+00,9.735012054443359375e+01
3.480000019073486328e+00,1.000377502441406250e+02
3.519999980926513672e+00,9.673897552490234375e+01
3.559999942779541016e+00,9.940505218505859375e+01
3.599999904632568359e+00,1.021649475097656250e+02
3.639999866485595703e+00,1.049588012695312500e+02
3.679999828338623047e+00,1.077905807495117188e+02
3.719999790191650391e+00,1.075100250244140625e+02
3.759999752044677734e+00,1.104206161499023438e+02
3.800000190734863281e+00,1.129756011962890625e+02
3.840000152587890625e+00,1.152828140258789062e+02
3.880000114440917969e+00,1.175931549072265625e+02
3.920000076293945312e+00,1.204763717651367188e+02
3.960000038146972656e+00,1.235795440673828125e+02
4.000000000000000000e+00,1.250039672851562500e+02
4.039999961853027344e+00,1.280347137451171875e+02
4.079999923706054688e+00,1.310988922119140625e+02
4.119999885559082031e+00,1.341983184814453125e+02
4.159999847412109375e+00,1.372973480224609375e+02
4.199999809265136719e+00,1.399674377441406250e+02
4.239999771118164062e+00,1.426498718261718750e+02
4.279999732971191406e+00,1.453517303466796875e+02
4.320000171661376953e+00,1.422860260009765625e+02
4.360000133514404297e+00,1.429205169677734375e+02
4.400000095367431641e+00,1.452687530517578125e+02
4.440000057220458984e+00,1.476291503906250000e+02
4.480000019073486328e+00,1.500141754150390625e+02
4.519999980926513672e+00,1.524107208251953125e+02
4.559999942779541016e+00,1.548027954101562500e+02
4.599999904632568359e+00,1.528921508789062500e+02
4.639999866485595703e+00,1.550647125244140625e+02
4.679999828338623047e+00,1.570341644287109375e+02
4.719999790191650391e+00,1.590122985839843750e+02
4.759999752044677734e+00,1.609901428222656250e+02
4.799999713897705078e+00,1.629669342041015625e+02
4.840000152587890625e+00,1.649326782226562500e+02
4.880000114440917969e+00,1.668932495117187500e+02
4.920000076293945312e+00,1.668650970458984375e+02
4.960000038146972656e+00,1.688156890869140625e+02
5.000000000000000000e+00,1.707194824218750000e+02
5.039999961853027344e+00,1.726736297607421875e+02
5.079999923706054688e+00,1.744761505126953125e+02
5.119999885559082031e+00,1.762703094482421875e+02
5.159999847412109375e+00,1.780566864013671875e+02
5.199999809265136719e+00,1.798327331542968750e+02
5.239999771118164062e+00,1.816001586914062500e+02
5.279999732971191406e+00,1.833644714355468750e+02
5.320000171661376953e+00,1.851248931884765625e+02
5.360000133514404297e+00,1.868821411132812500e+02
5.400000095367431641e+00,1.886323394775390625e+02
5.440000057220458984e+00,1.903734893798828125e+02
5.480000019073486328e+00,1.921100006103515625e+02
5.519999980926513672e+00,1.938329925537109375e+02
5.559999942779541016e+00,1.954235534667968750e+02
5.599999904632568359e+00,1.968741760253906250e+02
5.639999866485595703e+00,1.983165893554687500e+02
5.679999828338623047e+00,1.997520294189453125e+02
5.719999790191650391e+00,2.012012481689453125e+02
5.759999752044677734e+00,2.026439514160156250e+02
5.799999713897705078e+00,2.040631103515625000e+02
5.839999675750732422e+00,2.054599609375000000e+02
5.879999637603759766e+00,2.068503265380859375e+02
5.919999599456787109e+00,2.082241516113281250e+02
5.960000038146972656e+00,2.095911407470703125e+02
6.000000000000000000e+00,2.108846282958984375e+02
6.039999961853027344e+00,2.121028137207031250e+02
6.079999923706054688e+00,2.133134613037109375e+02
6.119999885559082031e+00,2.144075927734375000e+02
6.159999847412109375e+00,2.154282531738281250e+02
6.199999809265136719e+00,2.164484252929687500e+02
6.239999771118164062e+00,2.174686279296875000e+02
6.279999732971191406e+00,2.184811706542968750e+02
6.319999694824218750e+00,2.195111236572265625e+02
6.359999656677246094e+00,2.205336151123046875e+02
6.399999618530273438e+00,2.215432281494140625e+02
6.439999580383300781e+00,2.225402374267578125e+02
6.480000019073486328e+00,2.235301818847656250e+02
6.519999980926513672e+00,2.245039215087890625e+02
6.559999942779541016e+00,2.254709320068359375e+02
6.599999904632568359e+00,2.264257202148437500e+02
6.639999866485595703e+00,2.273684082031250000e+02
6.679999828338623047e+00,2.283047637939453125e+02
6.719999790191650391e+00,2.291865692138671875e+02
6.759999752044677734e+00,2.299682769775390625e+02
6.799999713897705078e+00,2.307322998046875000e+02
6.839999675750732422e+00,2.314790496826171875e+02
6.879999637603759766e+00,2.322193908691406250e+02
6.919999599456787109e+00,2.329536437988281250e+02
6.959999561309814453e+00,2.336816253662109375e+02
7.000000000000000000e+00,2.343478393554687500e+02
7.039999961853027344e+00,2.349516448974609375e+02
7.079999923706054688e+00,2.355506591796875000e+02
7.119999885559082031e+00,2.348941345214843750e+02
7.159999847412109375e+00,2.354701385498046875e+02
7.199999809265136719e+00,2.360514373779296875e+02
7.239999771118164062e+00,2.366387329101562500e+02
7.279999732971191406e+00,2.372204284667968750e+02
7.319999694824218750e+00,2.377963714599609375e+02
7.359999656677246094e+00,2.383665161132812500e+02
7.399999618530273438e+00,2.389205169677734375e+02
7.439999580383300781e+00,2.394583892822265625e+02
7.479999542236328125e+00,2.399911041259765625e+02
7.519999980926513672e+00,2.405183105468750000e+02
7.559999942779541016e+00,2.410403594970703125e+02
7.599999904632568359e+00,2.415425109863281250e+02
7.639999866485595703e+00,2.420242919921875000e+02
7.679999828338623047e+00,2.425013275146484375e+02
7.719999790191650391e+00,2.429821166992187500e+02
7.759999752044677734e+00,2.434587097167968750e+02
7.799999713897705078e+00,2.439107818603515625e+02
7.839999675750732422e+00,2.443374786376953125e+02
7.879999637603759766e+00,2.447595977783203125e+02
7.919999599456787109e+00,2.451973266601562500e+02
7.959999561309814453e+00,2.456305236816406250e+02
7.999999523162841797e+00,2.460123901367187500e+02
8.039999961853027344e+00,2.463429260253906250e+02
8.079999923706054688e+00,2.466692504882812500e+02
8.119999885559082031e+00,2.469656372070312500e+02
8.159999847412109375e+00,2.471946258544921875e+02
8.199999809265136719e+00,2.473751373291015625e+02
8.239999771118164062e+00,2.475424194335937500e+02
8.279999732971191406e+00,2.478109741210937500e+02
8.319999694824218750e+00,2.480724945068359375e+02
8.359999656677246094e+00,2.483300476074218750e+02
8.399999618530273438e+00,2.485373992919921875e+02
8.439999580383300781e+00,2.486949005126953125e+02
8.479999542236328125e+00,2.488482513427734375e+02
8.520000457763671875e+00,2.490377655029296875e+02
8.560000419616699219e+00,2.492231903076171875e+02
8.600000381469726562e+00,2.493618011474609375e+02
8.640000343322753906e+00,2.494531097412109375e+02
8.680000305175781250e+00,2.495402984619140625e+02
8.720000267028808594e+00,2.495860900878906250e+02
8.760000228881835938e+00,2.496278533935546875e+02
8.800000190734863281e+00,2.496266784667968750e+02
8.840000152587890625e+00,2.495824890136718750e+02
8.880000114440917969e+00,2.495341644287109375e+02
8.920000076293945312e+00,2.495155181884765625e+02
8.960000038146972656e+00,2.494582519531250000e+02
9.000000000000000000e+00,2.493394470214843750e+02
9.039999961853027344e+00,2.491784362792968750e+02
9.079999923706054688e+00,2.490133666992187500e+02
9.119999885559082031e+00,2.488783721923828125e+02
9.159999847412109375e+00,2.488829345703125000e+02
9.199999809265136719e+00,2.488426513671875000e+02
9.239999771118164062e+00,2.487572937011718750e+02
9.279999732971191406e+00,2.486675872802734375e+02
9.319999694824218750e+00,2.485537719726562500e+02
9.359999656677246094e+00,2.484356231689453125e+02
9.399999618530273438e+00,2.482645721435546875e+02
9.439999580383300781e+00,2.480405731201171875e+02
9.479999542236328125e+00,2.478122558593750000e+02
9.519999504089355469e+00,2.476017608642578125e+02
9.560000419616699219e+00,2.473872222900390625e+02
9.600000381469726562e+00,2.469904327392578125e+02
9.640000343322753906e+00,2.464658050537109375e+02
9.680000305175781250e+00,2.461000213623046875e+02
9.720000267028808594e+00,2.457211761474609375e+02
9.760000228881835938e+00,2.453380432128906250e+02
9.800000190734863281e+00,2.445700683593750000e+02
9.840000152587890625e+00,2.434101867675781250e+02
9.880000114440917969e+00,2.422241210937500000e+02
9.920000076293945312e+00,2.410439758300781250e+02
9.960000038146972656e+00,2.403213348388671875e+02
1.000000000000000000e+01,2.372422637939453125e+02
1.003999996185302734e+01,2.314770050048828125e+02
1.007999992370605469e+01,2.257033996582031250e+02
1.011999988555908203e+01,2.198928222656250000e+02
1.015999984741210938e+01,2.140778198242187500e+02
1.019999980926513672e+01,2.076926879882812500e+02
1.023999977111816406e+01,2.081368103027343750e+02
1.027999973297119141e+01,2.085726318359375000e+02
1.032000064849853516e+01,2.090604095458984375e+02
1.036000061035156250e+01,2.095404510498046875e+02
1.040000057220458984e+01,2.108193054199218750e+02
1.044000053405761719e+01,2.124843444824218750e+02
1.048000049591064453e+01,2.128653259277343750e+02
1.052000045776367188e+01,2.131795043945312500e+02
1.056000041961669922e+01,2.134869842529296875e+02
1.060000038146972656e+01,2.132255401611328125e+02
1.064000034332275391e+01,2.123997802734375000e+02
1.068000030517578125e+01,2.115727081298828125e+02
1.072000026702880859e+01,2.107691650390625000e+02
1.076000022888183594e+01,2.099643554687500000e+02
1.080000019073486328e+01,2.090485992431640625e+02
1.084000015258789062e+01,2.080091400146484375e+02
1.088000011444091797e+01,2.069634552001953125e+02
1.092000007629394531e+01,2.058893432617187500e+02
1.096000003814697266e+01,2.048162078857421875e+02
1.100000000000000000e+01,2.036406707763671875e+02
1.103999996185302734e+01,2.023637695312500000e+02
1.107999992370605469e+01,2.010897369384765625e+02
1.111999988555908203e+01,2.009564056396484375e+02
1.115999984741210938e+01,2.008209381103515625e+02
1.119999980926513672e+01,2.002074584960937500e+02
1.123999977111816406e+01,1.991155548095703125e+02
1.127999973297119141e+01,1.980206451416015625e+02
1.131999969482421875e+01,1.969282531738281250e+02
1.136000061035156250e+01,1.958330841064453125e+02
1.140000057220458984e+01,1.937876281738281250e+02
1.144000053405761719e+01,1.907890930175781250e+02
1.148000049591064453e+01,1.877833862304687500e+02
1.152000045776367188e+01,1.845963592529296875e+02
1.156000041961669922e+01,1.759817199707031250e+02
1.160000038146972656e+01,1.737228546142578125e+02
1.164000034332275391e+01,1.731067199707031250e+02
1.168000030517578125e+01,1.724852752685546875e+02
1.172000026702880859e+01,1.718644104003906250e+02
1.176000022888183594e+01,1.712354736328125000e+02
1.180000019073486328e+01,1.704717102050781250e+02
1.184000015258789062e+01,1.695772857666015625e+02
1.188000011444091797e+01,1.686831359863281250e+02
1.192000007629394531e+01,1.677782135009765625e+02
1.196000003814697266e+01,1.668684387207031250e+02
1.200000000000000000e+01,1.658333892822265625e+02
1.203999996185302734e+01,1.646738891601562500e+02
1.207999992370605469e+01,1.638623504638671875e+02
1.211999988555908203e+01,1.640763092041015625e+02
1.215999984741210938e+01,1.642893524169921875e+02
1.219999980926513672e+01,1.644283599853515625e+02
1.223999977111816406e+01,1.644930572509765625e+02
1.227999973297119141e+01,1.645569458007812500e+02
1.231999969482421875e+01,1.646036071777343750e+02
1.236000061035156250e+01,1.646495819091796875e+02
1.240000057220458984e+01,1.645887145996093750e+02
1.244000053405761719e+01,1.644215698242187500e+02
1.248000049591064453e+01,1.642535552978515625e+02
1.252000045776367188e+01,1.640854644775390625e+02
1.256000041961669922e+01,1.639168395996093750e+02
1.260000038146972656e+01,1.636881713867187500e+02
1.264000034332275391e+01,1.633997192382812500e+02
1.268000030517578125e+01,1.631108245849609375e+02
1.272000026702880859e+01,1.628216094970703125e+02
1.276000022888183594e+01,1.625317840576171875e+02
1.280000019073486328e+01,1.622035217285156250e+02
1.284000015258789062e+01,1.618368225097656250e+02
1.288000011444091797e+01,1.614703369140625000e+02
1.292000007629394531e+01,1.611170501708984375e+02
1.296000003814697266e+01,1.607633514404296875e+02
1.300000000000000000e+01,1.602481536865234375e+02
1.303999996185302734e+01,1.595719299316406250e+02
1.307999992370605469e+01,1.588962554931640625e+02
1.311999988555908203e+01,1.581987609863281250e+02
1.315999984741210938e+01,1.574999237060546875e+02
1.319999980926513672e+01,1.567105712890625000e+02
1.323999977111816406e+01,1.558315734863281250e+02
1.327999973297119141e+01,1.548956604003906250e+02
1.331999969482421875e+01,1.523438720703125000e+02
1.335999965667724609e+01,1.514805450439453125e+02
1.340000057220458984e+01,1.508791809082031250e+02
1.344000053405761719e+01,1.504712371826171875e+02
1.348000049591064453e+01,1.500626220703125000e+02
1.352000045776367188e+01,1.496870574951171875e+02
1.356000041961669922e+01,1.493107910156250000e+02
1.360000038146972656e+01,1.488838653564453125e+02
1.364000034332275391e+01,1.484066162109375000e+02
1.368000030517578125e+01,1.479282073974609375e+02
1.372000026702880859e+01,1.474157409667968750e+02
1.376000022888183594e+01,1.469027404785156250e+02
1.380000019073486328e+01,1.463503875732421875e+02
1.384000015258789062e+01,1.451834106445312500e+02
1.388000011444091797e+01,1.445761108398437500e+02
1.392000007629394531e+01,1.442899780273437500e+02
1.396000003814697266e+01,1.440042724609375000e+02
1.400000000000000000e+01,1.437471313476562500e+02
1.403999996185302734e+01,1.435186157226562500e+02
1.407999992370605469e+01,1.432893981933593750e+02
1.411999988555908203e+01,1.430435333251953125e+02
1.415999984741210938e+01,1.427970886230468750e+02
1.419999980926513672e+01,1.425466613769531250e+02
1.423999977111816406e+01,1.422922515869140625e+02
1.427999973297119141e+01,1.420372772216796875e+02
1.431999969482421875e+01,1.417812652587890625e+02
1.435999965667724609e+01,1.415247802734375000e+02
1.439999961853027344e+01,1.412523651123046875e+02
1.444000053405761719e+01,1.409598388671875000e+02
1.448000049591064453e+01,1.406672058105468750e+02
1.452000045776367188e+01,1.403716735839843750e+02
1.456000041961669922e+01,1.400758361816406250e+02
1.460000038146972656e+01,1.397768402099609375e+02
1.464000034332275391e+01,1.394746093750000000e+02
1.468000030517578125e+01,1.391721496582031250e+02
1.472000026702880859e+01,1.388717803955078125e+02
1.476000022888183594e+01,1.385710754394531250e+02
1.480000019073486328e+01,1.382681732177734375e+02
1.484000015258789062e+01,1.379629974365234375e+02
1.488000011444091797e+01,1.376571807861328125e+02
1.492000007629394531e+01,1.373510742187500000e+02
1.496000003814697266e+01,1.370447387695312500e+02
1.500000000000000000e+01,1.367386779785156250e+02
1.503999996185302734e+01,1.364329528808593750e+02
1.507999992370605469e+01,1.361269683837890625e+02
1.511999988555908203e+01,1.358196716308593750e+02
1.515999984741210938e+01,1.355121612548828125e+02
1.519999980926513672e+01,1.352006988525390625e+02
1.523999977111816406e+01,1.348852386474609375e+02
1.527999973297119141e+01,1.345695648193359375e+02
1.531999969482421875e+01,1.342546844482421875e+02
1.535999965667724609e+01,1.339395446777343750e+02
1.539999961853027344e+01,1.336257171630859375e+02
1.544000053405761719e+01,1.333131408691406250e+02
1.548000049591064453e+01,1.330003662109375000e+02
1.552000045776367188e+01,1.327036895751953125e+02
1.556000041961669922e+01,1.324066314697265625e+02
1.560000038146972656e+01,1.321179199218750000e+02
1.564000034332275391e+01,1.318374786376953125e+02
1.568000030517578125e+01,1.315567016601562500e+02
1.572000026702880859e+01,1.312121276855468750e+02
1.576000022888183594e+01,1.308667907714843750e+02
1.580000019073486328e+01,1.305149230957031250e+02
1.584000015258789062e+01,1.301564025878906250e+02
1.588000011444091797e+01,1.297954406738281250e+02
1.592000007629394531e+01,1.294334716796875000e+02
1.596000003814697266e+01,1.290715179443359375e+02
1.600000000000000000e+01,1.287098999023437500e+02
1.603999900817871094e+01,1.283486022949218750e+02
1.607999992370605469e+01,1.279872817993164062e+02
1.611999893188476562e+01,1.276315612792968750e+02
1.615999984741210938e+01,1.272757568359375000e+02
1.619999885559082031e+01,1.269199371337890625e+02
1.623999977111816406e+01,1.265639648437500000e+02
1.627999877929687500e+01,1.262080154418945312e+02
1.631999969482421875e+01,1.258587417602539062e+02
1.635999870300292969e+01,1.255093765258789062e+02
1.639999961853027344e+01,1.251599426269531250e+02
1.643999862670898438e+01,1.248105163574218750e+02
1.647999954223632812e+01,1.244608917236328125e+02
1.652000045776367188e+01,1.241107025146484375e+02
1.655999946594238281e+01,1.237604827880859375e+02
1.660000038146972656e+01,1.234102172851562500e+02
1.663999938964843750e+01,1.230598831176757812e+02
1.668000030517578125e+01,1.227094497680664062e+02
1.671999931335449219e+01,1.223526535034179688e+02
1.676000022888183594e+01,1.219958267211914062e+02
1.679999923706054688e+01,1.216389160156250000e+02
1.684000015258789062e+01,1.212819824218750000e+02
1.687999916076660156e+01,1.209250793457031250e+02
1.692000007629394531e+01,1.205664978027343750e+02
1.695999908447265625e+01,1.202079315185546875e+02
1.700000000000000000e+01,1.198532867431640625e+02
1.703999900817871094e+01,1.195023422241210938e+02
1.707999992370605469e+01,1.191514129638671875e+02
1.711999893188476562e+01,1.188184127807617188e+02
1.715999984741210938e+01,1.184853363037109375e+02
1.719999885559082031e+01,1.181522598266601562e+02
1.723999977111816406e+01,1.178191833496093750e+02
1.727999877929687500e+01,1.175004730224609375e+02
1.731999969482421875e+01,1.171693344116210938e+02
1.735999870300292969e+01,1.168383102416992188e+02
1.739999961853027344e+01,1.165071868896484375e+02
1.743999862670898438e+01,1.161755981445312500e+02
1.747999954223632812e+01,1.158427429199218750e+02
