# Start of Energy Bin (keV), Effective Area (cm^2)
1.600000023841857910e+00,5.279837846755981445e-01
1.639999985694885254e+00,7.177014946937561035e-01
1.680000066757202148e+00,9.729034304618835449e-01
1.720000028610229492e+00,1.315504431724548340e+00
1.759999990463256836e+00,1.750416755676269531e+00
1.799999952316284180e+00,2.178918361663818359e+00
1.840000033378601074e+00,1.342513084411621094e+00
1.879999995231628418e+00,1.679908037185668945e+00
1.920000076293945312e+00,2.149762630462646484e+00
1.960000038146972656e+00,2.668850183486938477e+00
2.000000000000000000e+00,3.256543159484863281e+00
2.039999961853027344e+00,3.939039230346679688e+00
2.079999923706054688e+00,4.759666919708251953e+00
2.119999885559082031e+00,4.501761913299560547e+00
2.160000085830688477e+00,5.171407222747802734e+00
2.200000047683715820e+00,5.439249992370605469e+00
2.240000009536743164e+00,6.176572322845458984e+00
2.279999971389770508e+00,7.034416198730468750e+00
2.319999933242797852e+00,8.088723182678222656e+00
2.360000133514404297e+00,9.109308242797851562e+00
2.400000095367431641e+00,1.008419513702392578e+01
2.440000057220458984e+00,1.117770576477050781e+01
2.480000019073486328e+00,1.244025993347167969e+01
2.519999980926513672e+00,1.393387889862060547e+01
2.559999942779541016e+00,1.556219577789306641e+01
2.599999904632568359e+00,1.702320480346679688e+01
2.639999866485595703e+00,1.745516204833984375e+01
2.679999828338623047e+00,1.891808319091796875e+01
2.720000028610229492e+00,2.048832321166992188e+01
2.759999990463256836e+00,2.217801284790039062e+01
2.799999952316284180e+00,2.399011039733886719e+01
2.840000152587890625e+00,2.585497283935546875e+01
2.880000114440917969e+00,2.745367050170898438e+01
2.920000076293945312e+00,2.912309074401855469e+01
2.960000038146972656e+00,3.088463211059570312e+01
3.000000000000000000e+00,3.274520111083984375e+01
3.039999961853027344e+00,3.389225387573242188e+01
3.079999923706054688e+00,3.575962066650390625e+01
3.119999885559082031e+00,3.768619155883789062e+01
3.159999847412109375e+00,3.926952743530273438e+01
3.199999809265136719e+00,4.089893341064453125e+01
3.240000009536743164e+00,4.257657241821289062e+01
3.279999971389770508e+00,4.382030105590820312e+01
3.319999933242797852e+00,4.619211959838867188e+01
3.360000133514404297e+00,4.867598724365234375e+01
3.400000095367431641e+00,5.126563262939453125e+01
3.440000057220458984e+00,5.317805099487304688e+01
3.480000019073486328e+00,5.452366638183593750e+01
3.519999980926513672e+00,5.219805526733398438e+01
3.559999942779541016e+00,5.353647994995117188e+01
3.599999904632568359e+00,5.492924880981445312e+01
3.639999866485595703e+00,5.634012222290039062e+01
3.679999828338623047e+00,5.777084350585937500e+01
3.719999790191650391e+00,5.731258010864257812e+01
3.759999752044677734e+00,5.878315734863281250e+01
3.800000190734863281e+00,6.006153106689453125e+01
3.840000152587890625e+00,6.120899963378906250e+01
3.880000114440917969e+00,6.235820388793945312e+01
3.920000076293945312e+00,6.381363296508789062e+01
3.960000038146972656e+00,6.538306427001953125e+01
4.000000000000000000e+00,6.594938659667968750e+01
4.039999961853027344e+00,6.747870635986328125e+01
4.079999923706054688e+00,6.902452850341796875e+01
4.119999885559082031e+00,7.057778167724609375e+01
4.159999847412109375e+00,7.212982177734375000e+01
4.199999809265136719e+00,7.345595550537109375e+01
4.239999771118164062e+00,7.478816223144531250e+01
4.279999732971191406e+00,7.613037109375000000e+01
4.320000171661376953e+00,7.406126403808593750e+01
4.360000133514404297e+00,7.420487213134765625e+01
4.400000095367431641e+00,7.536286926269531250e+01
4.440000057220458984e+00,7.652748870849609375e+01
4.480000019073486328e+00,7.770615386962890625e+01
4.519999980926513672e+00,7.889878082275390625e+01
4.559999942779541016e+00,8.008832550048828125e+01
4.599999904632568359e+00,7.878091430664062500e+01
4.639999866485595703e+00,7.987383270263671875e+01
4.679999828338623047e+00,8.084799957275390625e+01
4.719999790191650391e+00,8.182054138183593750e+01
4.759999752044677734e+00,8.279285430908203125e+01
4.799999713897705078e+00,8.376552581787109375e+01
4.840000152587890625e+00,8.473273468017578125e+01
4.880000114440917969e+00,8.569743347167968750e+01
4.920000076293945312e+00,8.551073455810546875e+01
4.960000038146972656e+00,8.647424316406250000e+01
5.000000000000000000e+00,8.741402435302734375e+01
5.039999961853027344e+00,8.840148925781250000e+01
5.079999923706054688e+00,8.932585144042968750e+01
5.119999885559082031e+00,9.024022674560546875e+01
5.159999847412109375e+00,9.115144348144531250e+01
5.199999809265136719e+00,9.205824279785156250e+01
5.239999771118164062e+00,9.296152496337890625e+01
5.279999732971191406e+00,9.386414337158203125e+01
5.320000171661376953e+00,9.477205657958984375e+01
5.360000133514404297e+00,9.567925262451171875e+01
5.400000095367431641e+00,9.658389282226562500e+01
5.440000057220458984e+00,9.748482513427734375e+01
5.480000019073486328e+00,9.838420104980468750e+01
5.519999980926513672e+00,9.928208160400390625e+01
5.559999942779541016e+00,1.001130447387695312e+02
5.599999904632568359e+00,1.008733901977539062e+02
5.639999866485595703e+00,1.016298904418945312e+02
5.679999828338623047e+00,1.023836441040039062e+02
5.719999790191650391e+00,1.031429977416992188e+02
5.759999752044677734e+00,1.038999328613281250e+02
5.799999713897705078e+00,1.046460189819335938e+02
5.839999675750732422e+00,1.053817520141601562e+02
5.879999637603759766e+00,1.061148529052734375e+02
5.919999599456787109e+00,1.068292694091796875e+02
5.960000038146972656e+00,1.075407714843750000e+02
6.000000000000000000e+00,1.082022094726562500e+02
6.039999961853027344e+00,1.088125610351562500e+02
6.079999923706054688e+00,1.094193420410156250e+02
6.119999885559082031e+00,1.099878616333007812e+02
6.159999847412109375e+00,1.105191726684570312e+02
6.199999809265136719e+00,1.110507812500000000e+02
6.239999771118164062e+00,1.115831527709960938e+02
6.279999732971191406e+00,1.121121673583984375e+02
6.319999694824218750e+00,1.126322708129882812e+02
6.359999656677246094e+00,1.131488800048828125e+02
6.399999618530273438e+00,1.136595687866210938e+02
6.439999580383300781e+00,1.141645355224609375e+02
6.480000019073486328e+00,1.146663055419921875e+02
6.519999980926513672e+00,1.151620407104492188e+02
6.559999942779541016e+00,1.156547164916992188e+02
6.599999904632568359e+00,1.161419372558593750e+02
6.639999866485595703e+00,1.166237640380859375e+02
6.679999828338623047e+00,1.171026153564453125e+02
6.719999790191650391e+00,1.175577087402343750e+02
6.759999752044677734e+00,1.179618072509765625e+02
6.799999713897705078e+00,1.183579025268554688e+02
6.839999675750732422e+00,1.187462539672851562e+02
6.879999637603759766e+00,1.191316146850585938e+02
6.919999599456787109e+00,1.195150451660156250e+02
6.959999561309814453e+00,1.198956298828125000e+02
7.000000000000000000e+00,1.202406768798828125e+02
7.039999961853027344e+00,1.205498123168945312e+02
7.079999923706054688e+00,1.208566055297851562e+02
7.119999885559082031e+00,1.205254135131835938e+02
7.159999847412109375e+00,1.208268890380859375e+02
7.199999809265136719e+00,1.211343078613281250e+02
7.239999771118164062e+00,1.214480972290039062e+02
7.279999732971191406e+00,1.217592773437500000e+02
7.319999694824218750e+00,1.220509414672851562e+02
7.359999656677246094e+00,1.223398361206054688e+02
7.399999618530273438e+00,1.226223907470703125e+02
7.439999580383300781e+00,1.228986282348632812e+02
7.479999542236328125e+00,1.231724548339843750e+02
7.519999980926513672e+00,1.234635086059570312e+02
7.559999942779541016e+00,1.237522735595703125e+02
7.599999904632568359e+00,1.240344696044921875e+02
7.639999866485595703e+00,1.243099899291992188e+02
7.679999828338623047e+00,1.245834197998046875e+02
7.719999790191650391e+00,1.248456649780273438e+02
7.759999752044677734e+00,1.251059722900390625e+02
7.799999713897705078e+00,1.253599319458007812e+02
7.839999675750732422e+00,1.256071624755859375e+02
7.879999637603759766e+00,1.258523101806640625e+02
7.919999599456787109e+00,1.260929870605468750e+02
7.959999561309814453e+00,1.263315963745117188e+02
7.999999523162841797e+00,1.265600357055664062e+02
8.039999961853027344e+00,1.267783737182617188e+02
8.079999923706054688e+00,1.269948577880859375e+02
8.119999885559082031e+00,1.272138442993164062e+02
8.159999847412109375e+00,1.273984832763671875e+02
8.199999809265136719e+00,1.275719451904296875e+02
8.239999771118164062e+00,1.277440567016601562e+02
8.279999732971191406e+00,1.279435501098632812e+02
8.319999694824218750e+00,1.281465606689453125e+02
8.359999656677246094e+00,1.283479614257812500e+02
8.399999618530273438e+00,1.285331420898437500e+02
8.439999580383300781e+00,1.287023620605468750e+02
8.479999542236328125e+00,1.288699493408203125e+02
8.520000457763671875e+00,1.290302429199218750e+02
8.560000419616699219e+00,1.291888580322265625e+02
8.600000381469726562e+00,1.293229370117187500e+02
8.640000343322753906e+00,1.294323272705078125e+02
8.680000305175781250e+00,1.295400390625000000e+02
8.720000267028808594e+00,1.296436767578125000e+02
8.760000228881835938e+00,1.297456817626953125e+02
8.800000190734863281e+00,1.298188171386718750e+02
8.840000152587890625e+00,1.298630371093750000e+02
8.880000114440917969e+00,1.299054565429687500e+02
8.920000076293945312e+00,1.299600677490234375e+02
8.960000038146972656e+00,1.299949645996093750e+02
9.000000000000000000e+00,1.299927978515625000e+02
9.039999961853027344e+00,1.299636383056640625e+02
9.079999923706054688e+00,1.299327392578125000e+02
9.119999885559082031e+00,1.299194183349609375e+02
9.159999847412109375e+00,1.299764099121093750e+02
9.199999809265136719e+00,1.300077514648437500e+02
9.239999771118164062e+00,1.300133819580078125e+02
9.279999732971191406e+00,1.300171813964843750e+02
9.319999694824218750e+00,1.300175323486328125e+02
9.359999656677246094e+00,1.300160675048828125e+02
9.399999618530273438e+00,1.299843902587890625e+02
9.439999580383300781e+00,1.299224243164062500e+02
9.479999542236328125e+00,1.298585968017578125e+02
9.519999504089355469e+00,1.297948608398437500e+02
9.560000419616699219e+00,1.297294006347656250e+02
9.600000381469726562e+00,1.295546875000000000e+02
9.640000343322753906e+00,1.293029327392578125e+02
9.680000305175781250e+00,1.291461944580078125e+02
9.720000267028808594e+00,1.289996337890625000e+02
9.760000228881835938e+00,1.288511352539062500e+02
9.800000190734863281e+00,1.285062255859375000e+02
9.840000152587890625e+00,1.279611053466796875e+02
9.880000114440917969e+00,1.274024124145507812e+02
9.920000076293945312e+00,1.268473358154296875e+02
9.960000038146972656e+00,1.265346984863281250e+02
1.000000000000000000e+01,1.250328903198242188e+02
1.003999996185302734e+01,1.221623535156250000e+02
1.007999992370605469e+01,1.192811965942382812e+02
1.011999988555908203e+01,1.163851776123046875e+02
1.015999984741210938e+01,1.134797363281250000e+02
1.019999980926513672e+01,1.102765808105468750e+02
1.023999977111816406e+01,1.104952011108398438e+02
1.027999973297119141e+01,1.107095260620117188e+02
1.032000064849853516e+01,1.109222030639648438e+02
1.036000061035156250e+01,1.111307601928710938e+02
1.040000057220458984e+01,1.117522277832031250e+02
1.044000053405761719e+01,1.125849304199218750e+02
1.048000049591064453e+01,1.127904434204101562e+02
1.052000045776367188e+01,1.129871826171875000e+02
1.056000041961669922e+01,1.131810073852539062e+02
1.060000038146972656e+01,1.131003189086914062e+02
1.064000034332275391e+01,1.127470321655273438e+02
1.068000030517578125e+01,1.123929214477539062e+02
1.072000026702880859e+01,1.120384140014648438e+02
1.076000022888183594e+01,1.116832122802734375e+02
1.080000019073486328e+01,1.112754211425781250e+02
1.084000015258789062e+01,1.108080520629882812e+02
1.088000011444091797e+01,1.103370666503906250e+02
1.092000007629394531e+01,1.098525695800781250e+02
1.096000003814697266e+01,1.093682479858398438e+02
1.100000000000000000e+01,1.088351058959960938e+02
1.103999996185302734e+01,1.082534255981445312e+02
1.107999992370605469e+01,1.076726303100585938e+02
1.111999988555908203e+01,1.076566467285156250e+02
1.115999984741210938e+01,1.076394805908203125e+02
1.119999980926513672e+01,1.073901367187500000e+02
1.123999977111816406e+01,1.069077301025390625e+02
1.127999973297119141e+01,1.064228591918945312e+02
1.131999969482421875e+01,1.059157333374023438e+02
1.136000061035156250e+01,1.054064407348632812e+02
1.140000057220458984e+01,1.043740768432617188e+02
1.144000053405761719e+01,1.028163299560546875e+02
1.148000049591064453e+01,1.012530441284179688e+02
1.152000045776367188e+01,9.959818267822265625e+01
1.156000041961669922e+01,9.563931274414062500e+01
1.160000038146972656e+01,9.441680145263671875e+01
1.164000034332275391e+01,9.409143829345703125e+01
1.168000030517578125e+01,9.376311492919921875e+01
1.172000026702880859e+01,9.344114685058593750e+01
1.176000022888183594e+01,9.311508941650390625e+01
1.180000019073486328e+01,9.273982238769531250e+01
1.184000015258789062e+01,9.231732177734375000e+01
1.188000011444091797e+01,9.189447784423828125e+01
1.192000007629394531e+01,9.145137786865234375e+01
1.196000003814697266e+01,9.100527954101562500e+01
1.200000000000000000e+01,9.049213409423828125e+01
1.203999996185302734e+01,8.991223907470703125e+01
1.207999992370605469e+01,8.950605773925781250e+01
1.211999988555908203e+01,8.961148071289062500e+01
1.215999984741210938e+01,8.971649932861328125e+01
1.219999980926513672e+01,8.978873443603515625e+01
1.223999977111816406e+01,8.982810974121093750e+01
1.227999973297119141e+01,8.986711120605468750e+01
1.231999969482421875e+01,8.990596771240234375e+01
1.236000061035156250e+01,8.994451904296875000e+01
1.240000057220458984e+01,8.993088531494140625e+01
1.244000053405761719e+01,8.986530303955078125e+01
1.248000049591064453e+01,8.979927825927734375e+01
1.252000045776367188e+01,8.972903442382812500e+01
1.256000041961669922e+01,8.965852355957031250e+01
1.260000038146972656e+01,8.955645751953125000e+01
1.264000034332275391e+01,8.942294311523437500e+01
1.268000030517578125e+01,8.928918457031250000e+01
1.272000026702880859e+01,8.915930175781250000e+01
1.276000022888183594e+01,8.902909851074218750e+01
1.280000019073486328e+01,8.887726593017578125e+01
1.284000015258789062e+01,8.870382690429687500e+01
1.288000011444091797e+01,8.853038787841796875e+01
1.292000007629394531e+01,8.834049224853515625e+01
1.296000003814697266e+01,8.815044403076171875e+01
1.300000000000000000e+01,8.786688232421875000e+01
1.303999996185302734e+01,8.749015045166015625e+01
1.307999992370605469e+01,8.711379241943359375e+01
1.311999988555908203e+01,8.674859619140625000e+01
1.315999984741210938e+01,8.638259887695312500e+01
1.319999980926513672e+01,8.596276092529296875e+01
1.323999977111816406e+01,8.548951721191406250e+01
1.327999973297119141e+01,8.496393585205078125e+01
1.331999969482421875e+01,8.380416107177734375e+01
1.335999965667724609e+01,8.331378173828125000e+01
1.340000057220458984e+01,8.296849060058593750e+01
1.344000053405761719e+01,8.273976135253906250e+01
1.348000049591064453e+01,8.251077270507812500e+01
1.352000045776367188e+01,8.227910614013671875e+01
1.356000041961669922e+01,8.204723358154296875e+01
1.360000038146972656e+01,8.178657531738281250e+01
1.364000034332275391e+01,8.149732971191406250e+01
1.368000030517578125e+01,8.120777130126953125e+01
1.372000026702880859e+01,8.091996002197265625e+01
1.376000022888183594e+01,8.063194274902343750e+01
1.380000019073486328e+01,8.031948852539062500e+01
1.384000015258789062e+01,7.975611114501953125e+01
1.388000011444091797e+01,7.945011901855468750e+01
1.392000007629394531e+01,7.926712036132812500e+01
1.396000003814697266e+01,7.908434295654296875e+01
1.400000000000000000e+01,7.891851043701171875e+01
1.403999996185302734e+01,7.876961517333984375e+01
1.407999992370605469e+01,7.862047576904296875e+01
1.411999988555908203e+01,7.847882843017578125e+01
1.415999984741210938e+01,7.833694458007812500e+01
1.419999980926513672e+01,7.819256591796875000e+01
1.423999977111816406e+01,7.804570770263671875e+01
1.427999973297119141e+01,7.789863586425781250e+01
1.431999969482421875e+01,7.773994445800781250e+01
1.435999965667724609e+01,7.758113861083984375e+01
1.439999961853027344e+01,7.741297912597656250e+01
1.444000053405761719e+01,7.723323822021484375e+01
1.448000049591064453e+01,7.705350494384765625e+01
1.452000045776367188e+01,7.687935638427734375e+01
1.456000041961669922e+01,7.670512390136718750e+01
1.460000038146972656e+01,7.652848815917968750e+01
1.464000034332275391e+01,7.634941864013671875e+01
1.468000030517578125e+01,7.617030334472656250e+01
1.472000026702880859e+01,7.599474334716796875e+01
1.476000022888183594e+01,7.581911468505859375e+01
1.480000019073486328e+01,7.564197540283203125e+01
1.484000015258789062e+01,7.546334838867187500e+01
1.488000011444091797e+01,7.528450775146484375e+01
1.492000007629394531e+01,7.510026550292968750e+01
1.496000003814697266e+01,7.491600799560546875e+01
1.500000000000000000e+01,7.473133087158203125e+01
1.503999996185302734e+01,7.454625701904296875e+01
1.507999992370605469e+01,7.436116790771484375e+01
1.511999988555908203e+01,7.418266296386718750e+01
1.515999984741210938e+01,7.400410461425781250e+01
1.519999980926513672e+01,7.382344818115234375e+01
1.523999977111816406e+01,7.364064025878906250e+01
1.527999973297119141e+01,7.345779418945312500e+01
1.531999969482421875e+01,7.326597595214843750e+01
1.535999965667724609e+01,7.307414245605468750e+01
1.539999961853027344e+01,7.288288116455078125e+01
1.544000053405761719e+01,7.269216156005859375e+01
1.548000049591064453e+01,7.250147247314453125e+01
1.552000045776367188e+01,7.231322479248046875e+01
1.556000041961669922e+01,7.212493896484375000e+01
1.560000038146972656e+01,7.194126129150390625e+01
1.564000034332275391e+01,7.176216125488281250e+01
1.568000030517578125e+01,7.158303070068359375e+01
1.572000026702880859e+01,7.139723968505859375e+01
1.576000022888183594e+01,7.121124267578125000e+01
1.580000019073486328e+01,7.102188110351562500e+01
1.584000015258789062e+01,7.082914733886718750e+01
1.588000011444091797e+01,7.063506317138671875e+01
1.592000007629394531e+01,7.043511962890625000e+01
1.596000003814697266e+01,7.023521423339843750e+01
1.600000000000000000e+01,7.003668975830078125e+01
1.603999900817871094e+01,6.983952331542968750e+01
1.607999992370605469e+01,6.964237213134765625e+01
1.611999893188476562e+01,6.944948577880859375e+01
1.615999984741210938e+01,6.925655364990234375e+01
1.619999885559082031e+01,6.906365203857421875e+01
1.623999977111816406e+01,6.887068939208984375e+01
1.627999877929687500e+01,6.867774963378906250e+01
1.631999969482421875e+01,6.848322296142578125e+01
1.635999870300292969e+01,6.828868865966796875e+01
1.639999961853027344e+01,6.809417724609375000e+01
1.643999862670898438e+01,6.789969635009765625e+01
1.647999954223632812e+01,6.770517730712890625e+01
1.652000045776367188e+01,6.750363159179687500e+01
1.655999946594238281e+01,6.730216217041015625e+01
1.660000038146972656e+01,6.710073852539062500e+01
1.663999938964843750e+01,6.689937591552734375e+01
1.668000030517578125e+01,6.669805145263671875e+01
1.671999931335449219e+01,6.651975250244140625e+01
1.676000022888183594e+01,6.634136962890625000e+01
1.679999923706054688e+01,6.616287231445312500e+01
1.684000015258789062e+01,6.598430633544921875e+01
1.687999916076660156e+01,6.580567932128906250e+01
1.692000007629394531e+01,6.561802673339843750e+01
1.695999908447265625e+01,6.543037414550781250e+01
1.700000000000000000e+01,6.524762725830078125e+01
1.703999900817871094e+01,6.506967926025390625e+01
1.707999992370605469e+01,6.489170074462890625e+01
1.711999893188476562e+01,6.470947265625000000e+01
1.715999984741210938e+01,6.452721405029296875e+01
1.719999885559082031e+01,6.434500885009765625e+01
1.723999977111816406e+01,6.416282653808593750e+01
1.727999877929687500e+01,6.398880386352539062e+01
1.731999969482421875e+01,6.382523727416992188e+01
1.735999870300292969e+01,6.366165924072265625e+01
1.739999961853027344e+01,6.349795532226562500e+01
1.743999862670898438e+01,6.333394241333007812e+01
1.747999954223632812e+01,6.316915130615234375e+01
