# Start of Energy Bin (keV), Effective Area (cm^2)
1.600000023841857910e+00,1.061273813247680664e+00
1.639999985694885254e+00,1.441612958908081055e+00
1.680000066757202148e+00,1.952856421470642090e+00
1.720000028610229492e+00,2.638678073883056641e+00
1.759999990463256836e+00,3.508543729782104492e+00
1.799999952316284180e+00,4.362941741943359375e+00
1.840000033378601074e+00,2.684880971908569336e+00
1.879999995231628418e+00,3.358466148376464844e+00
1.920000076293945312e+00,4.300168514251708984e+00
1.960000038146972656e+00,5.341432094573974609e+00
2.000000000000000000e+00,6.522059440612792969e+00
2.039999961853027344e+00,7.895279884338378906e+00
2.079999923706054688e+00,9.547747611999511719e+00
2.119999885559082031e+00,9.034147262573242188e+00
2.160000085830688477e+00,1.038005065917968750e+01
2.200000047683715820e+00,1.091911125183105469e+01
2.240000009536743164e+00,1.240007019042968750e+01
2.279999971389770508e+00,1.412322330474853516e+01
2.319999933242797852e+00,1.624143981933593750e+01
2.360000133514404297e+00,1.829231834411621094e+01
2.400000095367431641e+00,2.025153541564941406e+01
2.440000057220458984e+00,2.244902038574218750e+01
2.480000019073486328e+00,2.498631095886230469e+01
2.519999980926513672e+00,2.799203109741210938e+01
2.559999942779541016e+00,3.126892471313476562e+01
2.599999904632568359e+00,3.420962905883789062e+01
2.639999866485595703e+00,3.508283233642578125e+01
2.679999828338623047e+00,3.802688598632812500e+01
2.720000028610229492e+00,4.118241500854492188e+01
2.759999990463256836e+00,4.457793045043945312e+01
2.799999952316284180e+00,4.821910858154296875e+01
2.840000152587890625e+00,5.196706390380859375e+01
2.880000114440917969e+00,5.518054580688476562e+01
2.920000076293945312e+00,5.853404998779296875e+01
2.960000038146972656e+00,6.207248687744140625e+01
3.000000000000000000e+00,6.576765441894531250e+01
3.039999961853027344e+00,6.798335266113281250e+01
3.079999923706054688e+00,7.163572692871093750e+01
3.119999885559082031e+00,7.539662933349609375e+01
3.159999847412109375e+00,7.846165466308593750e+01
3.199999809265136719e+00,8.161032104492187500e+01
3.240000009536743164e+00,8.484660339355468750e+01
3.279999971389770508e+00,8.720974731445312500e+01
3.319999933242797852e+00,9.214585876464843750e+01
3.360000133514404297e+00,9.732637786865234375e+01
3.400000095367431641e+00,1.027362289428710938e+02
3.440000057220458984e+00,1.066357040405273438e+02
3.480000019073486328e+00,1.093445053100585938e+02
3.519999980926513672e+00,1.046762695312500000e+02
3.559999942779541016e+00,1.073558349609375000e+02
3.599999904632568359e+00,1.101441421508789062e+02
3.639999866485595703e+00,1.129685440063476562e+02
3.679999828338623047e+00,1.158324890136718750e+02
3.719999790191650391e+00,1.149063873291015625e+02
3.759999752044677734e+00,1.178472137451171875e+02
3.800000190734863281e+00,1.204022903442382812e+02
3.840000152587890625e+00,1.226945495605468750e+02
3.880000114440917969e+00,1.249899444580078125e+02
3.920000076293945312e+00,1.279025039672851562e+02
3.960000038146972656e+00,1.310449066162109375e+02
4.000000000000000000e+00,1.321765899658203125e+02
4.039999961853027344e+00,1.352381744384765625e+02
4.079999923706054688e+00,1.383326721191406250e+02
4.119999885559082031e+00,1.414514923095703125e+02
4.159999847412109375e+00,1.445681457519531250e+02
4.199999809265136719e+00,1.472321777343750000e+02
4.239999771118164062e+00,1.499084930419921875e+02
4.279999732971191406e+00,1.526051177978515625e+02
4.320000171661376953e+00,1.484489898681640625e+02
4.360000133514404297e+00,1.487297058105468750e+02
4.400000095367431641e+00,1.510438842773437500e+02
4.440000057220458984e+00,1.533710174560546875e+02
4.480000019073486328e+00,1.557261352539062500e+02
4.519999980926513672e+00,1.581289215087890625e+02
4.559999942779541016e+00,1.605258789062500000e+02
4.599999904632568359e+00,1.579179534912109375e+02
4.639999866485595703e+00,1.601214141845703125e+02
4.679999828338623047e+00,1.620871429443359375e+02
4.719999790191650391e+00,1.640505065917968750e+02
4.759999752044677734e+00,1.660137634277343750e+02
4.799999713897705078e+00,1.679779968261718750e+02
4.840000152587890625e+00,1.699314117431640625e+02
4.880000114440917969e+00,1.718802185058593750e+02
4.920000076293945312e+00,1.715025177001953125e+02
4.960000038146972656e+00,1.734316711425781250e+02
5.000000000000000000e+00,1.753130645751953125e+02
5.039999961853027344e+00,1.772694854736328125e+02
5.079999923706054688e+00,1.790855407714843750e+02
5.119999885559082031e+00,1.808768157958984375e+02
5.159999847412109375e+00,1.826609954833984375e+02
5.199999809265136719e+00,1.844353790283203125e+02
5.239999771118164062e+00,1.862018127441406250e+02
5.279999732971191406e+00,1.879661560058593750e+02
5.320000171661376953e+00,1.897467041015625000e+02
5.360000133514404297e+00,1.915251464843750000e+02
5.400000095367431641e+00,1.932976684570312500e+02
5.440000057220458984e+00,1.950619812011718750e+02
5.480000019073486328e+00,1.968224945068359375e+02
5.519999980926513672e+00,1.985874481201171875e+02
5.559999942779541016e+00,2.002180633544921875e+02
5.599999904632568359e+00,2.017067871093750000e+02
5.639999866485595703e+00,2.031873016357421875e+02
5.679999828338623047e+00,2.046618652343750000e+02
5.719999790191650391e+00,2.061341705322265625e+02
5.759999752044677734e+00,2.076010437011718750e+02
5.799999713897705078e+00,2.090452728271484375e+02
5.839999675750732422e+00,2.104678955078125000e+02
5.879999637603759766e+00,2.118846740722656250e+02
5.919999599456787109e+00,2.132881011962890625e+02
5.960000038146972656e+00,2.146854400634765625e+02
6.000000000000000000e+00,2.159946899414062500e+02
6.039999961853027344e+00,2.172140502929687500e+02
6.079999923706054688e+00,2.184263153076171875e+02
6.119999885559082031e+00,2.195354919433593750e+02
6.159999847412109375e+00,2.205701293945312500e+02
6.199999809265136719e+00,2.216050262451171875e+02
6.239999771118164062e+00,2.226410522460937500e+02
6.279999732971191406e+00,2.236701202392578125e+02
6.319999694824218750e+00,2.246937866210937500e+02
6.359999656677246094e+00,2.257103576660156250e+02
6.399999618530273438e+00,2.267146453857421875e+02
6.439999580383300781e+00,2.277070465087890625e+02
6.480000019073486328e+00,2.286929321289062500e+02
6.519999980926513672e+00,2.296720733642578125e+02
6.559999942779541016e+00,2.306450500488281250e+02
6.599999904632568359e+00,2.316066436767578125e+02
6.639999866485595703e+00,2.325569763183593750e+02
6.679999828338623047e+00,2.335012817382812500e+02
6.719999790191650391e+00,2.344041595458984375e+02
6.759999752044677734e+00,2.352052307128906250e+02
6.799999713897705078e+00,2.359897308349609375e+02
6.839999675750732422e+00,2.367580413818359375e+02
6.879999637603759766e+00,2.375203094482421875e+02
6.919999599456787109e+00,2.382695312500000000e+02
6.959999561309814453e+00,2.390129852294921875e+02
7.000000000000000000e+00,2.396953582763671875e+02
7.039999961853027344e+00,2.403159790039062500e+02
7.079999923706054688e+00,2.409319610595703125e+02
7.119999885559082031e+00,2.402572631835937500e+02
7.159999847412109375e+00,2.408437347412109375e+02
7.199999809265136719e+00,2.414394073486328125e+02
7.239999771118164062e+00,2.420450134277343750e+02
7.279999732971191406e+00,2.426453399658203125e+02
7.319999694824218750e+00,2.432543792724609375e+02
7.359999656677246094e+00,2.438580932617187500e+02
7.399999618530273438e+00,2.444479370117187500e+02
7.439999580383300781e+00,2.450240936279296875e+02
7.479999542236328125e+00,2.455955200195312500e+02
7.519999980926513672e+00,2.461510772705078125e+02
7.559999942779541016e+00,2.467018432617187500e+02
7.599999904632568359e+00,2.472369689941406250e+02
7.639999866485595703e+00,2.477560729980468750e+02
7.679999828338623047e+00,2.482709045410156250e+02
7.719999790191650391e+00,2.487795410156250000e+02
7.759999752044677734e+00,2.492842407226562500e+02
7.799999713897705078e+00,2.497720947265625000e+02
7.839999675750732422e+00,2.502424011230468750e+02
7.879999637603759766e+00,2.507084655761718750e+02
7.919999599456787109e+00,2.511819152832031250e+02
7.959999561309814453e+00,2.516512145996093750e+02
7.999999523162841797e+00,2.520812683105468750e+02
8.039999961853027344e+00,2.524720764160156250e+02
8.079999923706054688e+00,2.528590393066406250e+02
8.119999885559082031e+00,2.532344207763671875e+02
8.159999847412109375e+00,2.535412292480468750e+02
8.199999809265136719e+00,2.538131866455078125e+02
8.239999771118164062e+00,2.540775451660156250e+02
8.279999732971191406e+00,2.544196777343750000e+02
8.319999694824218750e+00,2.547783508300781250e+02
8.359999656677246094e+00,2.551336059570312500e+02
8.399999618530273438e+00,2.554423522949218750e+02
8.439999580383300781e+00,2.557051696777343750e+02
8.479999542236328125e+00,2.559643402099609375e+02
8.520000457763671875e+00,2.562268371582031250e+02
8.560000419616699219e+00,2.564857788085937500e+02
8.600000381469726562e+00,2.566898193359375000e+02
8.640000343322753906e+00,2.568387451171875000e+02
8.680000305175781250e+00,2.569839172363281250e+02
8.720000267028808594e+00,2.571022033691406250e+02
8.760000228881835938e+00,2.572168579101562500e+02
8.800000190734863281e+00,2.572817687988281250e+02
8.840000152587890625e+00,2.572968750000000000e+02
8.880000114440917969e+00,2.573081665039062500e+02
8.920000076293945312e+00,2.573593139648437500e+02
8.960000038146972656e+00,2.573710327148437500e+02
9.000000000000000000e+00,2.573168640136718750e+02
9.039999961853027344e+00,2.572165832519531250e+02
9.079999923706054688e+00,2.571125793457031250e+02
9.119999885559082031e+00,2.570477600097656250e+02
9.159999847412109375e+00,2.571245117187500000e+02
9.199999809265136719e+00,2.571510620117187500e+02
9.239999771118164062e+00,2.571272888183593750e+02
9.279999732971191406e+00,2.570995178222656250e+02
9.319999694824218750e+00,2.570646667480468750e+02
9.359999656677246094e+00,2.570258789062500000e+02
9.399999618530273438e+00,2.569266662597656250e+02
9.439999580383300781e+00,2.567669067382812500e+02
9.479999542236328125e+00,2.566030883789062500e+02
9.519999504089355469e+00,2.564614257812500000e+02
9.560000419616699219e+00,2.563159790039062500e+02
9.600000381469726562e+00,2.559592437744140625e+02
9.640000343322753906e+00,2.554549865722656250e+02
9.680000305175781250e+00,2.551380615234375000e+02
9.720000267028808594e+00,2.548227691650390625e+02
9.760000228881835938e+00,2.545032043457031250e+02
9.800000190734863281e+00,2.537931213378906250e+02
9.840000152587890625e+00,2.526848144531250000e+02
9.880000114440917969e+00,2.515492553710937500e+02
9.920000076293945312e+00,2.504350891113281250e+02
9.960000038146972656e+00,2.497976837158203125e+02
1.000000000000000000e+01,2.467691955566406250e+02
1.003999996185302734e+01,2.409990081787109375e+02
1.007999992370605469e+01,2.352111968994140625e+02
1.011999988555908203e+01,2.294118194580078125e+02
1.015999984741210938e+01,2.235966491699218750e+02
1.019999980926513672e+01,2.171872100830078125e+02
1.023999977111816406e+01,2.177059478759765625e+02
1.027999973297119141e+01,2.182164154052734375e+02
1.032000064849853516e+01,2.187080078125000000e+02
1.036000061035156250e+01,2.191916351318359375e+02
1.040000057220458984e+01,2.204995727539062500e+02
1.044000053405761719e+01,2.222183990478515625e+02
1.048000049591064453e+01,2.226504211425781250e+02
1.052000045776367188e+01,2.230608673095703125e+02
1.056000041961669922e+01,2.234651794433593750e+02
1.060000038146972656e+01,2.233021697998046875e+02
1.064000034332275391e+01,2.225757141113281250e+02
1.068000030517578125e+01,2.218474121093750000e+02
1.072000026702880859e+01,2.211139984130859375e+02
1.076000022888183594e+01,2.203790130615234375e+02
1.080000019073486328e+01,2.195342712402343750e+02
1.084000015258789062e+01,2.185661010742187500e+02
1.088000011444091797e+01,2.175908203125000000e+02
1.092000007629394531e+01,2.165923004150390625e+02
1.096000003814697266e+01,2.155940856933593750e+02
1.100000000000000000e+01,2.144940490722656250e+02
1.103999996185302734e+01,2.132929840087890625e+02
1.107999992370605469e+01,2.120937805175781250e+02
1.111999988555908203e+01,2.120383605957031250e+02
1.115999984741210938e+01,2.119807128906250000e+02
1.119999980926513672e+01,2.114436035156250000e+02
1.123999977111816406e+01,2.104257965087890625e+02
1.127999973297119141e+01,2.094036560058593750e+02
1.131999969482421875e+01,2.083470916748046875e+02
1.136000061035156250e+01,2.072867584228515625e+02
1.140000057220458984e+01,2.052048034667968750e+02
1.144000053405761719e+01,2.020973052978515625e+02
1.148000049591064453e+01,1.989802246093750000e+02
1.152000045776367188e+01,1.956899414062500000e+02
1.156000041961669922e+01,1.879174957275390625e+02
1.160000038146972656e+01,1.855253906250000000e+02
1.164000034332275391e+01,1.848973693847656250e+02
1.168000030517578125e+01,1.842635040283203125e+02
1.172000026702880859e+01,1.836383972167968750e+02
1.176000022888183594e+01,1.830052032470703125e+02
1.180000019073486328e+01,1.822528991699218750e+02
1.184000015258789062e+01,1.813855895996093750e+02
1.188000011444091797e+01,1.805178985595703125e+02
1.192000007629394531e+01,1.796141662597656250e+02
1.196000003814697266e+01,1.787048034667968750e+02
1.200000000000000000e+01,1.776616973876953125e+02
1.203999996185302734e+01,1.764855346679687500e+02
1.207999992370605469e+01,1.756659851074218750e+02
1.211999988555908203e+01,1.758828430175781250e+02
1.215999984741210938e+01,1.760988311767578125e+02
1.219999980926513672e+01,1.762428588867187500e+02
1.223999977111816406e+01,1.763146820068359375e+02
1.227999973297119141e+01,1.763857727050781250e+02
1.231999969482421875e+01,1.764618072509765625e+02
1.236000061035156250e+01,1.765372314453125000e+02
1.240000057220458984e+01,1.765036773681640625e+02
1.244000053405761719e+01,1.763616027832031250e+02
1.248000049591064453e+01,1.762186584472656250e+02
1.252000045776367188e+01,1.760575256347656250e+02
1.256000041961669922e+01,1.758958740234375000e+02
1.260000038146972656e+01,1.756704864501953125e+02
1.264000034332275391e+01,1.753815917968750000e+02
1.268000030517578125e+01,1.750922393798828125e+02
1.272000026702880859e+01,1.748320617675781250e+02
1.276000022888183594e+01,1.745711975097656250e+02
1.280000019073486328e+01,1.742678070068359375e+02
1.284000015258789062e+01,1.739218292236328125e+02
1.288000011444091797e+01,1.735758514404296875e+02
1.292000007629394531e+01,1.731669616699218750e+02
1.296000003814697266e+01,1.727578887939453125e+02
1.300000000000000000e+01,1.721679992675781250e+02
1.303999996185302734e+01,1.713980102539062500e+02
1.307999992370605469e+01,1.706290283203125000e+02
1.311999988555908203e+01,1.698955993652343750e+02
1.315999984741210938e+01,1.691607055664062500e+02
1.319999980926513672e+01,1.683236999511718750e+02
1.323999977111816406e+01,1.673854217529296875e+02
1.327999973297119141e+01,1.663740539550781250e+02
1.331999969482421875e+01,1.641248626708984375e+02
1.335999965667724609e+01,1.631950836181640625e+02
1.340000057220458984e+01,1.625421142578125000e+02
1.344000053405761719e+01,1.621072998046875000e+02
1.348000049591064453e+01,1.616719055175781250e+02
1.352000045776367188e+01,1.612222137451171875e+02
1.356000041961669922e+01,1.607720794677734375e+02
1.360000038146972656e+01,1.602658386230468750e+02
1.364000034332275391e+01,1.597038574218750000e+02
1.368000030517578125e+01,1.591412506103515625e+02
1.372000026702880859e+01,1.585792999267578125e+02
1.376000022888183594e+01,1.580169677734375000e+02
1.380000019073486328e+01,1.574092102050781250e+02
1.384000015258789062e+01,1.563121795654296875e+02
1.388000011444091797e+01,1.557167816162109375e+02
1.392000007629394531e+01,1.553703308105468750e+02
1.396000003814697266e+01,1.550242614746093750e+02
1.400000000000000000e+01,1.547101593017578125e+02
1.403999996185302734e+01,1.544280395507812500e+02
1.407999992370605469e+01,1.541453857421875000e+02
1.411999988555908203e+01,1.538708648681640625e+02
1.415999984741210938e+01,1.535958862304687500e+02
1.419999980926513672e+01,1.533161773681640625e+02
1.423999977111816406e+01,1.530317687988281250e+02
1.427999973297119141e+01,1.527469329833984375e+02
1.431999969482421875e+01,1.524441528320312500e+02
1.435999965667724609e+01,1.521410827636718750e+02
1.439999961853027344e+01,1.518203582763671875e+02
1.444000053405761719e+01,1.514774932861328125e+02
1.448000049591064453e+01,1.511345977783203125e+02
1.452000045776367188e+01,1.508081512451171875e+02
1.456000041961669922e+01,1.504814605712890625e+02
1.460000038146972656e+01,1.501507873535156250e+02
1.464000034332275391e+01,1.498160552978515625e+02
1.468000030517578125e+01,1.494811859130859375e+02
1.472000026702880859e+01,1.491369628906250000e+02
1.476000022888183594e+01,1.487926025390625000e+02
1.480000019073486328e+01,1.484457702636718750e+02
1.484000015258789062e+01,1.480965118408203125e+02
1.488000011444091797e+01,1.477467956542968750e+02
1.492000007629394531e+01,1.473970947265625000e+02
1.496000003814697266e+01,1.470473175048828125e+02
1.500000000000000000e+01,1.466975097656250000e+02
1.503999996185302734e+01,1.463477325439453125e+02
1.507999992370605469e+01,1.459978179931640625e+02
1.511999988555908203e+01,1.456666717529296875e+02
1.515999984741210938e+01,1.453353729248046875e+02
1.519999980926513672e+01,1.450000305175781250e+02
1.523999977111816406e+01,1.446606140136718750e+02
1.527999973297119141e+01,1.443210449218750000e+02
1.531999969482421875e+01,1.439607543945312500e+02
1.535999965667724609e+01,1.436003723144531250e+02
1.539999961853027344e+01,1.432413787841796875e+02
1.544000053405761719e+01,1.428836975097656250e+02
1.548000049591064453e+01,1.425259552001953125e+02
1.552000045776367188e+01,1.421784973144531250e+02
1.556000041961669922e+01,1.418308105468750000e+02
1.560000038146972656e+01,1.414921722412109375e+02
1.564000034332275391e+01,1.411625213623046875e+02
1.568000030517578125e+01,1.408326721191406250e+02
1.572000026702880859e+01,1.404559631347656250e+02
1.576000022888183594e+01,1.400787200927734375e+02
1.580000019073486328e+01,1.396946258544921875e+02
1.584000015258789062e+01,1.393036651611328125e+02
1.588000011444091797e+01,1.389101409912109375e+02
1.592000007629394531e+01,1.385284423828125000e+02
1.596000003814697266e+01,1.381467742919921875e+02
1.600000000000000000e+01,1.377665710449218750e+02
1.603999900817871094e+01,1.373877868652343750e+02
1.607999992370605469e+01,1.370089721679687500e+02
1.611999893188476562e+01,1.366173248291015625e+02
1.615999984741210938e+01,1.362256927490234375e+02
1.619999885559082031e+01,1.358341522216796875e+02
1.623999977111816406e+01,1.354425811767578125e+02
1.627999877929687500e+01,1.350511322021484375e+02
1.631999969482421875e+01,1.346710205078125000e+02
1.635999870300292969e+01,1.342909088134765625e+02
1.639999961853027344e+01,1.339107666015625000e+02
1.643999862670898438e+01,1.335307312011718750e+02
1.647999954223632812e+01,1.331505737304687500e+02
1.652000045776367188e+01,1.327703857421875000e+02
1.655999946594238281e+01,1.323902435302734375e+02
1.660000038146972656e+01,1.320101013183593750e+02
1.663999938964843750e+01,1.316299743652343750e+02
1.668000030517578125e+01,1.312498626708984375e+02
1.671999931335449219e+01,1.308988494873046875e+02
1.676000022888183594e+01,1.305477142333984375e+02
1.679999923706054688e+01,1.301963348388671875e+02
1.684000015258789062e+01,1.298448028564453125e+02
1.687999916076660156e+01,1.294931640625000000e+02
1.692000007629394531e+01,1.291151123046875000e+02
1.695999908447265625e+01,1.287370758056640625e+02
1.700000000000000000e+01,1.283679504394531250e+02
1.703999900817871094e+01,1.280075378417968750e+02
1.707999992370605469e+01,1.276471099853515625e+02
1.711999893188476562e+01,1.272827072143554688e+02
1.715999984741210938e+01,1.269183120727539062e+02
1.719999885559082031e+01,1.265540161132812500e+02
1.723999977111816406e+01,1.261897964477539062e+02
1.727999877929687500e+01,1.258413772583007812e+02
1.731999969482421875e+01,1.255318908691406250e+02
1.735999870300292969e+01,1.252223052978515625e+02
1.739999961853027344e+01,1.249124069213867188e+02
1.743999862670898438e+01,1.246018218994140625e+02
1.747999954223632812e+01,1.242896423339843750e+02
