# Start of Energy Bin (keV), Effective Area (cm^2)
1.600000023841857910e+00,2.680579423904418945e-01
1.639999985694885254e+00,3.648693561553955078e-01
1.680000066757202148e+00,4.952392876148223877e-01
1.720000028610229492e+00,6.704328656196594238e-01
1.759999990463256836e+00,8.931036591529846191e-01
1.799999952316284180e+00,1.112937569618225098e+00
1.840000033378601074e+00,6.864229440689086914e-01
1.879999995231628418e+00,8.597683906555175781e-01
1.920000076293945312e+00,1.101275920867919922e+00
1.960000038146972656e+00,1.368391036987304688e+00
2.000000000000000000e+00,1.671068310737609863e+00
2.039999961853027344e+00,2.022850751876831055e+00
2.079999923706054688e+00,2.446142673492431641e+00
2.119999885559082031e+00,2.115243196487426758e+00
2.160000085830688477e+00,2.438223838806152344e+00
2.200000047683715820e+00,2.488936185836791992e+00
2.240000009536743164e+00,2.826832532882690430e+00
2.279999971389770508e+00,3.220180749893188477e+00
2.319999933242797852e+00,3.701998233795166016e+00
2.360000133514404297e+00,4.166402339935302734e+00
2.400000095367431641e+00,4.609619140625000000e+00
2.440000057220458984e+00,5.112229824066162109e+00
2.480000019073486328e+00,5.702924251556396484e+00
2.519999980926513672e+00,6.421792030334472656e+00
2.559999942779541016e+00,7.209190368652343750e+00
2.599999904632568359e+00,7.924495220184326172e+00
2.639999866485595703e+00,7.988379955291748047e+00
2.679999828338623047e+00,8.699378013610839844e+00
2.720000028610229492e+00,9.463647842407226562e+00
2.759999990463256836e+00,1.028932380676269531e+01
2.799999952316284180e+00,1.117673587799072266e+01
2.840000152587890625e+00,1.209307575225830078e+01
2.880000114440917969e+00,1.288953495025634766e+01
2.920000076293945312e+00,1.372135925292968750e+01
2.960000038146972656e+00,1.460210323333740234e+01
3.000000000000000000e+00,1.554633235931396484e+01
3.039999961853027344e+00,1.601832580566406250e+01
3.079999923706054688e+00,1.695520019531250000e+01
3.119999885559082031e+00,1.792452239990234375e+01
3.159999847412109375e+00,1.873384284973144531e+01
3.199999809265136719e+00,1.956736946105957031e+01
3.240000009536743164e+00,2.042627906799316406e+01
3.279999971389770508e+00,2.098820877075195312e+01
3.319999933242797852e+00,2.218095588684082031e+01
3.360000133514404297e+00,2.343207359313964844e+01
3.400000095367431641e+00,2.473830986022949219e+01
3.440000057220458984e+00,2.572227096557617188e+01
3.480000019073486328e+00,2.643437576293945312e+01
3.519999980926513672e+00,2.556472587585449219e+01
3.559999942779541016e+00,2.627138710021972656e+01
3.599999904632568359e+00,2.700294685363769531e+01
3.639999866485595703e+00,2.774359321594238281e+01
3.679999828338623047e+00,2.849440002441406250e+01
3.719999790191650391e+00,2.842238044738769531e+01
3.759999752044677734e+00,2.919407653808593750e+01
3.800000190734863281e+00,2.987191009521484375e+01
3.840000152587890625e+00,3.048438262939453125e+01
3.880000114440917969e+00,3.109779930114746094e+01
3.920000076293945312e+00,3.185997962951660156e+01
3.960000038146972656e+00,3.267949295043945312e+01
4.000000000000000000e+00,3.305506515502929688e+01
4.039999961853027344e+00,3.385540008544921875e+01
4.079999923706054688e+00,3.466452789306640625e+01
4.119999885559082031e+00,3.548296737670898438e+01
4.159999847412109375e+00,3.630124664306640625e+01
4.199999809265136719e+00,3.700611877441406250e+01
4.239999771118164062e+00,3.771426010131835938e+01
4.279999732971191406e+00,3.842749404907226562e+01
4.320000171661376953e+00,3.761711120605468750e+01
4.360000133514404297e+00,3.778417968750000000e+01
4.400000095367431641e+00,3.840406799316406250e+01
4.440000057220458984e+00,3.902718353271484375e+01
4.480000019073486328e+00,3.965677261352539062e+01
4.519999980926513672e+00,4.028984069824218750e+01
4.559999942779541016e+00,4.092170715332031250e+01
4.599999904632568359e+00,4.041621017456054688e+01
4.639999866485595703e+00,4.099013137817382812e+01
4.679999828338623047e+00,4.151033782958984375e+01
4.719999790191650391e+00,4.202959442138671875e+01
4.759999752044677734e+00,4.254867553710937500e+01
4.799999713897705078e+00,4.306743621826171875e+01
4.840000152587890625e+00,4.358323669433593750e+01
4.880000114440917969e+00,4.409759140014648438e+01
4.920000076293945312e+00,4.408839797973632812e+01
4.960000038146972656e+00,4.460199737548828125e+01
5.000000000000000000e+00,4.510324859619140625e+01
5.039999961853027344e+00,4.562915039062500000e+01
5.079999923706054688e+00,4.612260437011718750e+01
5.119999885559082031e+00,4.661402511596679688e+01
5.159999847412109375e+00,4.710372161865234375e+01
5.199999809265136719e+00,4.759109115600585938e+01
5.239999771118164062e+00,4.807657623291015625e+01
5.279999732971191406e+00,4.856156539916992188e+01
5.320000171661376953e+00,4.904608535766601562e+01
5.360000133514404297e+00,4.953010177612304688e+01
5.400000095367431641e+00,5.001266098022460938e+01
5.440000057220458984e+00,5.049323272705078125e+01
5.480000019073486328e+00,5.097290802001953125e+01
5.519999980926513672e+00,5.144938278198242188e+01
5.559999942779541016e+00,5.189102935791015625e+01
5.599999904632568359e+00,5.229590225219726562e+01
5.639999866485595703e+00,5.269895553588867188e+01
5.679999828338623047e+00,5.310043716430664062e+01
5.719999790191650391e+00,5.350553131103515625e+01
5.759999752044677734e+00,5.390916442871093750e+01
5.799999713897705078e+00,5.430699157714843750e+01
5.839999675750732422e+00,5.469932556152343750e+01
5.879999637603759766e+00,5.509019851684570312e+01
5.919999599456787109e+00,5.547766113281250000e+01
5.960000038146972656e+00,5.586358642578125000e+01
6.000000000000000000e+00,5.622334289550781250e+01
6.039999961853027344e+00,5.655633544921875000e+01
6.079999923706054688e+00,5.688741302490234375e+01
6.119999885559082031e+00,5.719015121459960938e+01
6.159999847412109375e+00,5.747340393066406250e+01
6.199999809265136719e+00,5.775670242309570312e+01
6.239999771118164062e+00,5.804021453857421875e+01
6.279999732971191406e+00,5.832178878784179688e+01
6.319999694824218750e+00,5.860088729858398438e+01
6.359999656677246094e+00,5.887804412841796875e+01
6.399999618530273438e+00,5.915200424194335938e+01
6.439999580383300781e+00,5.942284011840820312e+01
6.480000019073486328e+00,5.969182586669921875e+01
6.519999980926513672e+00,5.995967864990234375e+01
6.559999942779541016e+00,6.022579956054687500e+01
6.599999904632568359e+00,6.048898696899414062e+01
6.639999866485595703e+00,6.074926376342773438e+01
6.679999828338623047e+00,6.100791168212890625e+01
6.719999790191650391e+00,6.125298309326171875e+01
6.759999752044677734e+00,6.147137832641601562e+01
6.799999713897705078e+00,6.168551254272460938e+01
6.839999675750732422e+00,6.189552688598632812e+01
6.879999637603759766e+00,6.210388946533203125e+01
6.919999599456787109e+00,6.231129455566406250e+01
6.959999561309814453e+00,6.251707839965820312e+01
7.000000000000000000e+00,6.270427703857421875e+01
7.039999961853027344e+00,6.287268829345703125e+01
7.079999923706054688e+00,6.303985977172851562e+01
7.119999885559082031e+00,6.287039184570312500e+01
7.159999847412109375e+00,6.303081512451171875e+01
7.199999809265136719e+00,6.319425964355468750e+01
7.239999771118164062e+00,6.336092758178710938e+01
7.279999732971191406e+00,6.352614974975585938e+01
7.319999694824218750e+00,6.368984603881835938e+01
7.359999656677246094e+00,6.385203552246093750e+01
7.399999618530273438e+00,6.401084899902343750e+01
7.439999580383300781e+00,6.416629791259765625e+01
7.479999542236328125e+00,6.432041931152343750e+01
7.519999980926513672e+00,6.447309875488281250e+01
7.559999942779541016e+00,6.462447357177734375e+01
7.599999904632568359e+00,6.477236938476562500e+01
7.639999866485595703e+00,6.491670227050781250e+01
7.679999828338623047e+00,6.505982208251953125e+01
7.719999790191650391e+00,6.520172882080078125e+01
7.759999752044677734e+00,6.534258270263671875e+01
7.799999713897705078e+00,6.548007965087890625e+01
7.839999675750732422e+00,6.561402893066406250e+01
7.879999637603759766e+00,6.574681854248046875e+01
7.919999599456787109e+00,6.587853240966796875e+01
7.959999561309814453e+00,6.600909423828125000e+01
7.999999523162841797e+00,6.613427734375000000e+01
8.039999961853027344e+00,6.625412750244140625e+01
8.079999923706054688e+00,6.637297058105468750e+01
8.119999885559082031e+00,6.649074554443359375e+01
8.159999847412109375e+00,6.659049987792968750e+01
8.199999809265136719e+00,6.668444061279296875e+01
8.239999771118164062e+00,6.677759552001953125e+01
8.279999732971191406e+00,6.688478088378906250e+01
8.319999694824218750e+00,6.699409484863281250e+01
8.359999656677246094e+00,6.710251617431640625e+01
8.399999618530273438e+00,6.720251464843750000e+01
8.439999580383300781e+00,6.729422760009765625e+01
8.479999542236328125e+00,6.738501739501953125e+01
8.520000457763671875e+00,6.747186279296875000e+01
8.560000419616699219e+00,6.755779266357421875e+01
8.600000381469726562e+00,6.763102722167968750e+01
8.640000343322753906e+00,6.769146728515625000e+01
8.680000305175781250e+00,6.775098419189453125e+01
8.720000267028808594e+00,6.781267547607421875e+01
8.760000228881835938e+00,6.787347412109375000e+01
8.800000190734863281e+00,6.791909790039062500e+01
8.840000152587890625e+00,6.794951629638671875e+01
8.880000114440917969e+00,6.797896575927734375e+01
8.920000076293945312e+00,6.800523376464843750e+01
8.960000038146972656e+00,6.802115631103515625e+01
9.000000000000000000e+00,6.801749420166015625e+01
9.039999961853027344e+00,6.799951934814453125e+01
9.079999923706054688e+00,6.798058319091796875e+01
9.119999885559082031e+00,6.796838378906250000e+01
9.159999847412109375e+00,6.799288177490234375e+01
9.199999809265136719e+00,6.800390625000000000e+01
9.239999771118164062e+00,6.800141143798828125e+01
9.279999732971191406e+00,6.799791717529296875e+01
9.319999694824218750e+00,6.799841308593750000e+01
9.359999656677246094e+00,6.799791717529296875e+01
9.399999618530273438e+00,6.798156738281250000e+01
9.439999580383300781e+00,6.794934082031250000e+01
9.479999542236328125e+00,6.791609954833984375e+01
9.519999504089355469e+00,6.788393402099609375e+01
9.560000419616699219e+00,6.785086059570312500e+01
9.600000381469726562e+00,6.776451110839843750e+01
9.640000343322753906e+00,6.763977813720703125e+01
9.680000305175781250e+00,6.755876922607421875e+01
9.720000267028808594e+00,6.747234344482421875e+01
9.760000228881835938e+00,6.738491058349609375e+01
9.800000190734863281e+00,6.719494628906250000e+01
9.840000152587890625e+00,6.690052032470703125e+01
9.880000114440917969e+00,6.659905242919921875e+01
9.920000076293945312e+00,6.629974365234375000e+01
9.960000038146972656e+00,6.612722015380859375e+01
1.000000000000000000e+01,6.533344268798828125e+01
1.003999996185302734e+01,6.382481384277343750e+01
1.007999992370605469e+01,6.231104278564453125e+01
1.011999988555908203e+01,6.079022216796875000e+01
1.015999984741210938e+01,5.926486587524414062e+01
1.019999980926513672e+01,5.758441543579101562e+01
1.023999977111816406e+01,5.768933868408203125e+01
1.027999973297119141e+01,5.779197311401367188e+01
1.032000064849853516e+01,5.789439773559570312e+01
1.036000061035156250e+01,5.799463272094726562e+01
1.040000057220458984e+01,5.831025695800781250e+01
1.044000053405761719e+01,5.873608398437500000e+01
1.048000049591064453e+01,5.883507919311523438e+01
1.052000045776367188e+01,5.893045043945312500e+01
1.056000041961669922e+01,5.902427291870117188e+01
1.060000038146972656e+01,5.897513961791992188e+01
1.064000034332275391e+01,5.878409957885742188e+01
1.068000030517578125e+01,5.859266281127929688e+01
1.072000026702880859e+01,5.840017318725585938e+01
1.076000022888183594e+01,5.820737075805664062e+01
1.080000019073486328e+01,5.798723983764648438e+01
1.084000015258789062e+01,5.773613357543945312e+01
1.088000011444091797e+01,5.748321914672851562e+01
1.092000007629394531e+01,5.723041152954101562e+01
1.096000003814697266e+01,5.697769546508789062e+01
1.100000000000000000e+01,5.669955825805664062e+01
1.103999996185302734e+01,5.639616012573242188e+01
1.107999992370605469e+01,5.609321594238281250e+01
1.111999988555908203e+01,5.607726287841796875e+01
1.115999984741210938e+01,5.606068801879882812e+01
1.119999980926513672e+01,5.592336273193359375e+01
1.123999977111816406e+01,5.566489410400390625e+01
1.127999973297119141e+01,5.540520095825195312e+01
1.131999969482421875e+01,5.514026260375976562e+01
1.136000061035156250e+01,5.487421417236328125e+01
1.140000057220458984e+01,5.433583450317382812e+01
1.144000053405761719e+01,5.352393341064453125e+01
1.148000049591064453e+01,5.270917129516601562e+01
1.152000045776367188e+01,5.184577560424804688e+01
1.156000041961669922e+01,4.942894744873046875e+01
1.160000038146972656e+01,4.879719161987304688e+01
1.164000034332275391e+01,4.862827301025390625e+01
1.168000030517578125e+01,4.845780563354492188e+01
1.172000026702880859e+01,4.828758621215820312e+01
1.176000022888183594e+01,4.811503219604492188e+01
1.180000019073486328e+01,4.791721343994140625e+01
1.184000015258789062e+01,4.769512176513671875e+01
1.188000011444091797e+01,4.747285461425781250e+01
1.192000007629394531e+01,4.724782562255859375e+01
1.196000003814697266e+01,4.702117919921875000e+01
1.200000000000000000e+01,4.675982666015625000e+01
1.203999996185302734e+01,4.646393585205078125e+01
1.207999992370605469e+01,4.625760269165039062e+01
1.211999988555908203e+01,4.631100463867187500e+01
1.215999984741210938e+01,4.636415481567382812e+01
1.219999980926513672e+01,4.640041351318359375e+01
1.223999977111816406e+01,4.641970443725585938e+01
1.227999973297119141e+01,4.643876266479492188e+01
1.231999969482421875e+01,4.645791244506835938e+01
1.236000061035156250e+01,4.647687149047851562e+01
1.240000057220458984e+01,4.646888732910156250e+01
1.244000053405761719e+01,4.643410873413085938e+01
1.248000049591064453e+01,4.639906311035156250e+01
1.252000045776367188e+01,4.636765289306640625e+01
1.256000041961669922e+01,4.633606719970703125e+01
1.260000038146972656e+01,4.628816223144531250e+01
1.264000034332275391e+01,4.622399902343750000e+01
1.268000030517578125e+01,4.615966415405273438e+01
1.272000026702880859e+01,4.608869934082031250e+01
1.276000022888183594e+01,4.601753616333007812e+01
1.280000019073486328e+01,4.593521499633789062e+01
1.284000015258789062e+01,4.584173583984375000e+01
1.288000011444091797e+01,4.574829101562500000e+01
1.292000007629394531e+01,4.565863418579101562e+01
1.296000003814697266e+01,4.556883621215820312e+01
1.300000000000000000e+01,4.543062591552734375e+01
1.303999996185302734e+01,4.524414062500000000e+01
1.307999992370605469e+01,4.505776596069335938e+01
1.311999988555908203e+01,4.487058258056640625e+01
1.315999984741210938e+01,4.468294143676757812e+01
1.319999980926513672e+01,4.446741104125976562e+01
1.323999977111816406e+01,4.422424316406250000e+01
1.327999973297119141e+01,4.395263290405273438e+01
1.331999969482421875e+01,4.322233581542968750e+01
1.335999965667724609e+01,4.296612167358398438e+01
1.340000057220458984e+01,4.278791809082031250e+01
1.344000053405761719e+01,4.266989517211914062e+01
1.348000049591064453e+01,4.255170440673828125e+01
1.352000045776367188e+01,4.243569946289062500e+01
1.356000041961669922e+01,4.231954193115234375e+01
1.360000038146972656e+01,4.218848800659179688e+01
1.364000034332275391e+01,4.204264831542968750e+01
1.368000030517578125e+01,4.189655303955078125e+01
1.372000026702880859e+01,4.174994277954101562e+01
1.376000022888183594e+01,4.160318756103515625e+01
1.380000019073486328e+01,4.144395446777343750e+01
1.384000015258789062e+01,4.110934448242187500e+01
1.388000011444091797e+01,4.093581008911132812e+01
1.392000007629394531e+01,4.084606552124023438e+01
1.396000003814697266e+01,4.075647735595703125e+01
1.400000000000000000e+01,4.067558288574218750e+01
1.403999996185302734e+01,4.060338592529296875e+01
1.407999992370605469e+01,4.053101730346679688e+01
1.411999988555908203e+01,4.045437622070312500e+01
1.415999984741210938e+01,4.037759399414062500e+01
1.419999980926513672e+01,4.029952239990234375e+01
1.423999977111816406e+01,4.022015380859375000e+01
1.427999973297119141e+01,4.014066696166992188e+01
1.431999969482421875e+01,4.006507492065429688e+01
1.435999965667724609e+01,3.998937606811523438e+01
1.439999961853027344e+01,3.990880966186523438e+01
1.444000053405761719e+01,3.982220077514648438e+01
1.448000049591064453e+01,3.973557281494140625e+01
1.452000045776367188e+01,3.964887619018554688e+01
1.456000041961669922e+01,3.956209945678710938e+01
1.460000038146972656e+01,3.947402954101562500e+01
1.464000034332275391e+01,3.938465499877929688e+01
1.468000030517578125e+01,3.929523086547851562e+01
1.472000026702880859e+01,3.920217132568359375e+01
1.476000022888183594e+01,3.910906600952148438e+01
1.480000019073486328e+01,3.901518630981445312e+01
1.484000015258789062e+01,3.892051696777343750e+01
1.488000011444091797e+01,3.882571029663085938e+01
1.492000007629394531e+01,3.873404693603515625e+01
1.496000003814697266e+01,3.864234161376953125e+01
1.500000000000000000e+01,3.855037307739257812e+01
1.503999996185302734e+01,3.845816421508789062e+01
1.507999992370605469e+01,3.836589813232421875e+01
1.511999988555908203e+01,3.827390670776367188e+01
1.515999984741210938e+01,3.818186950683593750e+01
1.519999980926513672e+01,3.808872604370117188e+01
1.523999977111816406e+01,3.799445343017578125e+01
1.527999973297119141e+01,3.790014648437500000e+01
1.531999969482421875e+01,3.780266952514648438e+01
1.535999965667724609e+01,3.770515441894531250e+01
1.539999961853027344e+01,3.760792541503906250e+01
1.544000053405761719e+01,3.751095199584960938e+01
1.548000049591064453e+01,3.741397094726562500e+01
1.552000045776367188e+01,3.731840515136718750e+01
1.556000041961669922e+01,3.722278594970703125e+01
1.560000038146972656e+01,3.712952804565429688e+01
1.564000034332275391e+01,3.703860473632812500e+01
1.568000030517578125e+01,3.694763565063476562e+01
1.572000026702880859e+01,3.685106277465820312e+01
1.576000022888183594e+01,3.675436401367187500e+01
1.580000019073486328e+01,3.665593338012695312e+01
1.584000015258789062e+01,3.655574417114257812e+01
1.588000011444091797e+01,3.645485687255859375e+01
1.592000007629394531e+01,3.635159301757812500e+01
1.596000003814697266e+01,3.624834442138671875e+01
1.600000000000000000e+01,3.614581298828125000e+01
1.603999900817871094e+01,3.604397583007812500e+01
1.607999992370605469e+01,3.594214248657226562e+01
1.611999893188476562e+01,3.584257507324218750e+01
1.615999984741210938e+01,3.574297714233398438e+01
1.619999885559082031e+01,3.564337921142578125e+01
1.623999977111816406e+01,3.554373168945312500e+01
1.627999877929687500e+01,3.544409561157226562e+01
1.631999969482421875e+01,3.534474182128906250e+01
1.635999870300292969e+01,3.524536895751953125e+01
1.639999961853027344e+01,3.514599227905273438e+01
1.643999862670898438e+01,3.504661560058593750e+01
1.647999954223632812e+01,3.494719696044921875e+01
1.652000045776367188e+01,3.484772872924804688e+01
1.655999946594238281e+01,3.474826431274414062e+01
1.660000038146972656e+01,3.464878463745117188e+01
1.663999938964843750e+01,3.454929733276367188e+01
1.668000030517578125e+01,3.444979476928710938e+01
1.671999931335449219e+01,3.435103225708007812e+01
1.676000022888183594e+01,3.425225830078125000e+01
1.679999923706054688e+01,3.415345001220703125e+01
1.684000015258789062e+01,3.405463027954101562e+01
1.687999916076660156e+01,3.395581054687500000e+01
1.692000007629394531e+01,3.385905838012695312e+01
1.695999908447265625e+01,3.376229095458984375e+01
1.700000000000000000e+01,3.366807174682617188e+01
1.703999900817871094e+01,3.357631683349609375e+01
1.707999992370605469e+01,3.348453903198242188e+01
1.711999893188476562e+01,3.339221954345703125e+01
1.715999984741210938e+01,3.329987335205078125e+01
1.719999885559082031e+01,3.320752716064453125e+01
1.723999977111816406e+01,3.311518096923828125e+01
1.727999877929687500e+01,3.302702713012695312e+01
1.731999969482421875e+01,3.293954849243164062e+01
1.735999870300292969e+01,3.285207366943359375e+01
1.739999961853027344e+01,3.276454162597656250e+01
1.743999862670898438e+01,3.267685699462890625e+01
1.747999954223632812e+01,3.258877944946289062e+01
