# Start of Energy Bin (keV), Effective Area (cm^2)
1.600000023841857910e+00,9.250915050506591797e-01
1.639999985694885254e+00,1.255806088447570801e+00
1.680000066757202148e+00,1.700036883354187012e+00
1.720000028610229492e+00,2.295545816421508789e+00
1.759999990463256836e+00,3.050248146057128906e+00
1.799999952316284180e+00,3.789320230484008789e+00
1.840000033378601074e+00,2.329155206680297852e+00
1.879999995231628418e+00,2.912596940994262695e+00
1.920000076293945312e+00,3.731058835983276367e+00
1.960000038146972656e+00,4.636714935302734375e+00
2.000000000000000000e+00,5.664982795715332031e+00
2.039999961853027344e+00,6.862723350524902344e+00
2.079999923706054688e+00,8.305054664611816406e+00
2.119999885559082031e+00,7.861302375793457031e+00
2.160000085830688477e+00,9.033994674682617188e+00
2.200000047683715820e+00,9.504125595092773438e+00
2.240000009536743164e+00,1.079354953765869141e+01
2.279999971389770508e+00,1.229390811920166016e+01
2.319999933242797852e+00,1.414028739929199219e+01
2.360000133514404297e+00,1.592868232727050781e+01
2.400000095367431641e+00,1.763767814636230469e+01
2.440000057220458984e+00,1.955455398559570312e+01
2.480000019073486328e+00,2.176805686950683594e+01
2.519999980926513672e+00,2.438907051086425781e+01
2.559999942779541016e+00,2.724628829956054688e+01
2.599999904632568359e+00,2.981000518798828125e+01
2.639999866485595703e+00,3.057217216491699219e+01
2.679999828338623047e+00,3.313750839233398438e+01
2.720000028610229492e+00,3.588972091674804688e+01
2.759999990463256836e+00,3.885145950317382812e+01
2.799999952316284180e+00,4.202751159667968750e+01
2.840000152587890625e+00,4.529779434204101562e+01
2.880000114440917969e+00,4.810314941406250000e+01
2.920000076293945312e+00,5.102485656738281250e+01
2.960000038146972656e+00,5.410756683349609375e+01
3.000000000000000000e+00,5.728707504272460938e+01
3.039999961853027344e+00,5.913407135009765625e+01
3.079999923706054688e+00,6.222307205200195312e+01
3.119999885559082031e+00,6.539836120605468750e+01
3.159999847412109375e+00,6.796154785156250000e+01
3.199999809265136719e+00,7.058936309814453125e+01
3.240000009536743164e+00,7.328491210937500000e+01
3.279999971389770508e+00,7.521851348876953125e+01
3.319999933242797852e+00,7.967001342773437500e+01
3.360000133514404297e+00,8.435144805908203125e+01
3.400000095367431641e+00,8.924731445312500000e+01
3.440000057220458984e+00,9.268524932861328125e+01
3.480000019073486328e+00,9.503644561767578125e+01
3.519999980926513672e+00,9.097512054443359375e+01
3.559999942779541016e+00,9.329987335205078125e+01
3.599999904632568359e+00,9.571894836425781250e+01
3.639999866485595703e+00,9.816916656494140625e+01
3.679999828338623047e+00,1.006535263061523438e+02
3.719999790191650391e+00,9.984430694580078125e+01
3.759999752044677734e+00,1.023950195312500000e+02
3.800000190734863281e+00,1.046102752685546875e+02
3.840000152587890625e+00,1.065968933105468750e+02
3.880000114440917969e+00,1.085860137939453125e+02
3.920000076293945312e+00,1.111165466308593750e+02
3.960000038146972656e+00,1.138482284545898438e+02
4.000000000000000000e+00,1.148330459594726562e+02
4.039999961853027344e+00,1.174945068359375000e+02
4.079999923706054688e+00,1.201846313476562500e+02
4.119999885559082031e+00,1.228957901000976562e+02
4.159999847412109375e+00,1.256051406860351562e+02
4.199999809265136719e+00,1.279212188720703125e+02
4.239999771118164062e+00,1.302479553222656250e+02
4.279999732971191406e+00,1.325923614501953125e+02
4.320000171661376953e+00,1.289878997802734375e+02
4.360000133514404297e+00,1.292398529052734375e+02
4.400000095367431641e+00,1.312593231201171875e+02
4.440000057220458984e+00,1.332902679443359375e+02
4.480000019073486328e+00,1.353458099365234375e+02
4.519999980926513672e+00,1.374329223632812500e+02
4.559999942779541016e+00,1.395149841308593750e+02
4.599999904632568359e+00,1.372471618652343750e+02
4.639999866485595703e+00,1.391608581542968750e+02
4.679999828338623047e+00,1.408679199218750000e+02
4.719999790191650391e+00,1.425736083984375000e+02
4.759999752044677734e+00,1.442791748046875000e+02
4.799999713897705078e+00,1.459854888916015625e+02
4.840000152587890625e+00,1.476823425292968750e+02
4.880000114440917969e+00,1.493751525878906250e+02
4.920000076293945312e+00,1.490515441894531250e+02
4.960000038146972656e+00,1.507328186035156250e+02
5.000000000000000000e+00,1.523726654052734375e+02
5.039999961853027344e+00,1.540584106445312500e+02
5.079999923706054688e+00,1.556092376708984375e+02
5.119999885559082031e+00,1.571445007324218750e+02
5.159999847412109375e+00,1.586731719970703125e+02
5.199999809265136719e+00,1.601928558349609375e+02
5.239999771118164062e+00,1.617051391601562500e+02
5.279999732971191406e+00,1.632151794433593750e+02
5.320000171661376953e+00,1.647210235595703125e+02
5.360000133514404297e+00,1.662243347167968750e+02
5.400000095367431641e+00,1.677216796875000000e+02
5.440000057220458984e+00,1.692109985351562500e+02
5.480000019073486328e+00,1.706963500976562500e+02
5.519999980926513672e+00,1.721962127685546875e+02
5.559999942779541016e+00,1.735790557861328125e+02
5.599999904632568359e+00,1.748383178710937500e+02
5.639999866485595703e+00,1.760898132324218750e+02
5.679999828338623047e+00,1.773357849121093750e+02
5.719999790191650391e+00,1.785850830078125000e+02
5.759999752044677734e+00,1.798293609619140625e+02
5.799999713897705078e+00,1.810533599853515625e+02
5.839999675750732422e+00,1.822580108642578125e+02
5.879999637603759766e+00,1.834572601318359375e+02
5.919999599456787109e+00,1.846391296386718750e+02
5.960000038146972656e+00,1.858153076171875000e+02
6.000000000000000000e+00,1.869263916015625000e+02
6.039999961853027344e+00,1.879709320068359375e+02
6.079999923706054688e+00,1.890092163085937500e+02
6.119999885559082031e+00,1.899424743652343750e+02
6.159999847412109375e+00,1.908109436035156250e+02
6.199999809265136719e+00,1.916792907714843750e+02
6.239999771118164062e+00,1.925481872558593750e+02
6.279999732971191406e+00,1.934108123779296875e+02
6.319999694824218750e+00,1.942828216552734375e+02
6.359999656677246094e+00,1.951485748291015625e+02
6.399999618530273438e+00,1.960032348632812500e+02
6.439999580383300781e+00,1.968471221923828125e+02
6.480000019073486328e+00,1.976852722167968750e+02
6.519999980926513672e+00,1.985330200195312500e+02
6.559999942779541016e+00,1.993754272460937500e+02
6.599999904632568359e+00,2.002075500488281250e+02
6.639999866485595703e+00,2.010294647216796875e+02
6.679999828338623047e+00,2.018461914062500000e+02
6.719999790191650391e+00,2.025994262695312500e+02
6.759999752044677734e+00,2.032645111083984375e+02
6.799999713897705078e+00,2.039142761230468750e+02
6.839999675750732422e+00,2.045491485595703125e+02
6.879999637603759766e+00,2.051785888671875000e+02
6.919999599456787109e+00,2.058075256347656250e+02
6.959999561309814453e+00,2.064313659667968750e+02
7.000000000000000000e+00,2.070025329589843750e+02
7.039999961853027344e+00,2.075204925537109375e+02
7.079999923706054688e+00,2.080343627929687500e+02
7.119999885559082031e+00,2.074356536865234375e+02
7.159999847412109375e+00,2.079258422851562500e+02
7.199999809265136719e+00,2.084210968017578125e+02
7.239999771118164062e+00,2.089220275878906250e+02
7.279999732971191406e+00,2.094183044433593750e+02
7.319999694824218750e+00,2.099204711914062500e+02
7.359999656677246094e+00,2.104179077148437500e+02
7.399999618530273438e+00,2.109014587402343750e+02
7.439999580383300781e+00,2.113712158203125000e+02
7.479999542236328125e+00,2.118367767333984375e+02
7.519999980926513672e+00,2.122865600585937500e+02
7.559999942779541016e+00,2.127320556640625000e+02
7.599999904632568359e+00,2.131602630615234375e+02
7.639999866485595703e+00,2.135708465576171875e+02
7.679999828338623047e+00,2.139775695800781250e+02
7.719999790191650391e+00,2.143846435546875000e+02
7.759999752044677734e+00,2.147882537841796875e+02
7.799999713897705078e+00,2.151705627441406250e+02
7.839999675750732422e+00,2.155310058593750000e+02
7.879999637603759766e+00,2.158876190185546875e+02
7.919999599456787109e+00,2.162615661621093750e+02
7.959999561309814453e+00,2.166317596435546875e+02
7.999999523162841797e+00,2.169558868408203125e+02
8.039999961853027344e+00,2.172338256835937500e+02
8.079999923706054688e+00,2.175082092285156250e+02
8.119999885559082031e+00,2.177597045898437500e+02
8.159999847412109375e+00,2.179519805908203125e+02
8.199999809265136719e+00,2.181023864746093750e+02
8.239999771118164062e+00,2.182417144775390625e+02
8.279999732971191406e+00,2.184698638916015625e+02
8.319999694824218750e+00,2.187195434570312500e+02
8.359999656677246094e+00,2.189660339355468750e+02
8.399999618530273438e+00,2.191676025390625000e+02
8.439999580383300781e+00,2.193247070312500000e+02
8.479999542236328125e+00,2.194783782958984375e+02
8.520000457763671875e+00,2.196324615478515625e+02
8.560000419616699219e+00,2.197830963134765625e+02
8.600000381469726562e+00,2.198920135498046875e+02
8.640000343322753906e+00,2.199588928222656250e+02
8.680000305175781250e+00,2.200222778320312500e+02
8.720000267028808594e+00,2.200960083007812500e+02
8.760000228881835938e+00,2.201663818359375000e+02
8.800000190734863281e+00,2.201987457275390625e+02
8.840000152587890625e+00,2.201930084228515625e+02
8.880000114440917969e+00,2.201837768554687500e+02
8.920000076293945312e+00,2.201752319335937500e+02
8.960000038146972656e+00,2.201327667236328125e+02
9.000000000000000000e+00,2.200369567871093750e+02
9.039999961853027344e+00,2.199048614501953125e+02
9.079999923706054688e+00,2.197693786621093750e+02
9.119999885559082031e+00,2.196681976318359375e+02
9.159999847412109375e+00,2.196903076171875000e+02
9.199999809265136719e+00,2.196729431152343750e+02
9.239999771118164062e+00,2.196159667968750000e+02
9.279999732971191406e+00,2.195552673339843750e+02
9.319999694824218750e+00,2.195121459960937500e+02
9.359999656677246094e+00,2.194653167724609375e+02
9.399999618530273438e+00,2.193717041015625000e+02
9.439999580383300781e+00,2.192312164306640625e+02
9.479999542236328125e+00,2.190869598388671875e+02
9.519999504089355469e+00,2.189606323242187500e+02
9.560000419616699219e+00,2.188307037353515625e+02
9.600000381469726562e+00,2.185261840820312500e+02
9.640000343322753906e+00,2.181013488769531250e+02
9.680000305175781250e+00,2.178362121582031250e+02
9.720000267028808594e+00,2.175791168212890625e+02
9.760000228881835938e+00,2.173180999755859375e+02
9.800000190734863281e+00,2.167168121337890625e+02
9.840000152587890625e+00,2.157686614990234375e+02
9.880000114440917969e+00,2.147966461181640625e+02
9.920000076293945312e+00,2.138429260253906250e+02
9.960000038146972656e+00,2.132945098876953125e+02
1.000000000000000000e+01,2.106557617187500000e+02
1.003999996185302734e+01,2.056309204101562500e+02
1.007999992370605469e+01,2.005940856933593750e+02
1.011999988555908203e+01,1.955521697998046875e+02
1.015999984741210938e+01,1.904999694824218750e+02
1.019999980926513672e+01,1.849331359863281250e+02
1.023999977111816406e+01,1.854388427734375000e+02
1.027999973297119141e+01,1.859377136230468750e+02
1.032000064849853516e+01,1.864242553710937500e+02
1.036000061035156250e+01,1.869041442871093750e+02
1.040000057220458984e+01,1.880968475341796875e+02
1.044000053405761719e+01,1.896351470947265625e+02
1.048000049591064453e+01,1.900294036865234375e+02
1.052000045776367188e+01,1.904099121093750000e+02
1.056000041961669922e+01,1.907848052978515625e+02
1.060000038146972656e+01,1.906519622802734375e+02
1.064000034332275391e+01,1.900146789550781250e+02
1.068000030517578125e+01,1.893755035400390625e+02
1.072000026702880859e+01,1.887203521728515625e+02
1.076000022888183594e+01,1.880636291503906250e+02
1.080000019073486328e+01,1.873071899414062500e+02
1.084000015258789062e+01,1.864395141601562500e+02
1.088000011444091797e+01,1.855657043457031250e+02
1.092000007629394531e+01,1.846646270751953125e+02
1.096000003814697266e+01,1.837637939453125000e+02
1.100000000000000000e+01,1.827706146240234375e+02
1.103999996185302734e+01,1.816858215332031250e+02
1.107999992370605469e+01,1.806028900146484375e+02
1.111999988555908203e+01,1.805121459960937500e+02
1.115999984741210938e+01,1.804194488525390625e+02
1.119999980926513672e+01,1.798977508544921875e+02
1.123999977111816406e+01,1.789463806152343750e+02
1.127999973297119141e+01,1.779920654296875000e+02
1.131999969482421875e+01,1.770486145019531250e+02
1.136000061035156250e+01,1.761022338867187500e+02
1.140000057220458984e+01,1.743004760742187500e+02
1.144000053405761719e+01,1.716402587890625000e+02
1.148000049591064453e+01,1.689724578857421875e+02
1.152000045776367188e+01,1.661495361328125000e+02
1.156000041961669922e+01,1.595709838867187500e+02
1.160000038146972656e+01,1.575562591552734375e+02
1.164000034332275391e+01,1.570335998535156250e+02
1.168000030517578125e+01,1.565059051513671875e+02
1.172000026702880859e+01,1.559796905517578125e+02
1.176000022888183594e+01,1.554466247558593750e+02
1.180000019073486328e+01,1.547914428710937500e+02
1.184000015258789062e+01,1.540178985595703125e+02
1.188000011444091797e+01,1.532442779541015625e+02
1.192000007629394531e+01,1.524495849609375000e+02
1.196000003814697266e+01,1.516503295898437500e+02
1.200000000000000000e+01,1.507369995117187500e+02
1.203999996185302734e+01,1.497103424072265625e+02
1.207999992370605469e+01,1.489996185302734375e+02
1.211999988555908203e+01,1.492080993652343750e+02
1.215999984741210938e+01,1.494159240722656250e+02
1.219999980926513672e+01,1.495565795898437500e+02
1.223999977111816406e+01,1.496298980712890625e+02
1.227999973297119141e+01,1.497026062011718750e+02
1.231999969482421875e+01,1.497696685791015625e+02
1.236000061035156250e+01,1.498362121582031250e+02
1.240000057220458984e+01,1.498057098388671875e+02
1.244000053405761719e+01,1.496785430908203125e+02
1.248000049591064453e+01,1.495506439208984375e+02
1.252000045776367188e+01,1.493889007568359375e+02
1.256000041961669922e+01,1.492267913818359375e+02
1.260000038146972656e+01,1.490101013183593750e+02
1.264000034332275391e+01,1.487390899658203125e+02
1.268000030517578125e+01,1.484677886962890625e+02
1.272000026702880859e+01,1.482480010986328125e+02
1.276000022888183594e+01,1.480276031494140625e+02
1.280000019073486328e+01,1.477720184326171875e+02
1.284000015258789062e+01,1.474812011718750000e+02
1.288000011444091797e+01,1.471903533935546875e+02
1.292000007629394531e+01,1.468357849121093750e+02
1.296000003814697266e+01,1.464810791015625000e+02
1.300000000000000000e+01,1.459795532226562500e+02
1.303999996185302734e+01,1.453317413330078125e+02
1.307999992370605469e+01,1.446847534179687500e+02
1.311999988555908203e+01,1.440530242919921875e+02
1.315999984741210938e+01,1.434201507568359375e+02
1.319999980926513672e+01,1.427047119140625000e+02
1.323999977111816406e+01,1.419074401855468750e+02
1.327999973297119141e+01,1.410613708496093750e+02
1.331999969482421875e+01,1.391786346435546875e+02
1.335999965667724609e+01,1.384227600097656250e+02
1.340000057220458984e+01,1.378960723876953125e+02
1.344000053405761719e+01,1.375462646484375000e+02
1.348000049591064453e+01,1.371958465576171875e+02
1.352000045776367188e+01,1.368250579833984375e+02
1.356000041961669922e+01,1.364538421630859375e+02
1.360000038146972656e+01,1.360366058349609375e+02
1.364000034332275391e+01,1.355736083984375000e+02
1.368000030517578125e+01,1.351099548339843750e+02
1.372000026702880859e+01,1.346543426513671875e+02
1.376000022888183594e+01,1.341982574462890625e+02
1.380000019073486328e+01,1.337055511474609375e+02
1.384000015258789062e+01,1.327991485595703125e+02
1.388000011444091797e+01,1.323128356933593750e+02
1.392000007629394531e+01,1.320311584472656250e+02
1.396000003814697266e+01,1.317497406005859375e+02
1.400000000000000000e+01,1.314946594238281250e+02
1.403999996185302734e+01,1.312659149169921875e+02
1.407999992370605469e+01,1.310366821289062500e+02
1.411999988555908203e+01,1.308161163330078125e+02
1.415999984741210938e+01,1.305951232910156250e+02
1.419999980926513672e+01,1.303704833984375000e+02
1.423999977111816406e+01,1.301422576904296875e+02
1.427999973297119141e+01,1.299136199951171875e+02
1.431999969482421875e+01,1.296781768798828125e+02
1.435999965667724609e+01,1.294424133300781250e+02
1.439999961853027344e+01,1.291921691894531250e+02
1.444000053405761719e+01,1.289235839843750000e+02
1.448000049591064453e+01,1.286548919677734375e+02
1.452000045776367188e+01,1.283845367431640625e+02
1.456000041961669922e+01,1.281139526367187500e+02
1.460000038146972656e+01,1.278405609130859375e+02
1.464000034332275391e+01,1.275643081665039062e+02
1.468000030517578125e+01,1.272879104614257812e+02
1.472000026702880859e+01,1.270078811645507812e+02
1.476000022888183594e+01,1.267276916503906250e+02
1.480000019073486328e+01,1.264455642700195312e+02
1.484000015258789062e+01,1.261614608764648438e+02
1.488000011444091797e+01,1.258769683837890625e+02
1.492000007629394531e+01,1.256020736694335938e+02
1.496000003814697266e+01,1.253270111083984375e+02
1.500000000000000000e+01,1.250522842407226562e+02
1.503999996185302734e+01,1.247779541015625000e+02
1.507999992370605469e+01,1.245034255981445312e+02
1.511999988555908203e+01,1.242323226928710938e+02
1.515999984741210938e+01,1.239610366821289062e+02
1.519999980926513672e+01,1.236862030029296875e+02
1.523999977111816406e+01,1.234078063964843750e+02
1.527999973297119141e+01,1.231292114257812500e+02
1.531999969482421875e+01,1.228444442749023438e+02
1.535999965667724609e+01,1.225594787597656250e+02
1.539999961853027344e+01,1.222757644653320312e+02
1.544000053405761719e+01,1.219932479858398438e+02
1.548000049591064453e+01,1.217105712890625000e+02
1.552000045776367188e+01,1.214335784912109375e+02
1.556000041961669922e+01,1.211563110351562500e+02
1.560000038146972656e+01,1.208867645263671875e+02
1.564000034332275391e+01,1.206249313354492188e+02
1.568000030517578125e+01,1.203628540039062500e+02
1.572000026702880859e+01,1.200406875610351562e+02
1.576000022888183594e+01,1.197179107666015625e+02
1.580000019073486328e+01,1.193892364501953125e+02
1.584000015258789062e+01,1.190546340942382812e+02
1.588000011444091797e+01,1.187178497314453125e+02
1.592000007629394531e+01,1.184244308471679688e+02
1.596000003814697266e+01,1.181308670043945312e+02
1.600000000000000000e+01,1.178375244140625000e+02
1.603999900817871094e+01,1.175443572998046875e+02
1.607999992370605469e+01,1.172509765625000000e+02
1.611999893188476562e+01,1.169194641113281250e+02
1.615999984741210938e+01,1.165879211425781250e+02
1.619999885559082031e+01,1.162564620971679688e+02
1.623999977111816406e+01,1.159249343872070312e+02
1.627999877929687500e+01,1.155934982299804688e+02
1.631999969482421875e+01,1.152652511596679688e+02
1.635999870300292969e+01,1.149370346069335938e+02
1.639999961853027344e+01,1.146088180541992188e+02
1.643999862670898438e+01,1.142806777954101562e+02
1.647999954223632812e+01,1.139524841308593750e+02
1.652000045776367188e+01,1.136543884277343750e+02
1.655999946594238281e+01,1.133561706542968750e+02
1.660000038146972656e+01,1.130577926635742188e+02
1.663999938964843750e+01,1.127592849731445312e+02
1.668000030517578125e+01,1.124605941772460938e+02
1.671999931335449219e+01,1.121423110961914062e+02
1.676000022888183594e+01,1.118240051269531250e+02
1.679999923706054688e+01,1.115055999755859375e+02
1.684000015258789062e+01,1.111871795654296875e+02
1.687999916076660156e+01,1.108687667846679688e+02
1.692000007629394531e+01,1.105480575561523438e+02
1.695999908447265625e+01,1.102273483276367188e+02
1.700000000000000000e+01,1.099100723266601562e+02
1.703999900817871094e+01,1.095961074829101562e+02
1.707999992370605469e+01,1.092821350097656250e+02
1.711999893188476562e+01,1.089834136962890625e+02
1.715999984741210938e+01,1.086845932006835938e+02
1.719999885559082031e+01,1.083857879638671875e+02
1.723999977111816406e+01,1.080869369506835938e+02
1.727999877929687500e+01,1.078012924194335938e+02
1.731999969482421875e+01,1.075299148559570312e+02
1.735999870300292969e+01,1.072584991455078125e+02
1.739999961853027344e+01,1.069868316650390625e+02
1.743999862670898438e+01,1.067145843505859375e+02
1.747999954223632812e+01,1.064410247802734375e+02
