# Start of Energy Bin (keV), Effective Area (cm^2)
1.600000023841857910e+00,9.207888841629028320e-01
1.639999985694885254e+00,1.252001047134399414e+00
1.680000066757202148e+00,1.697518944740295410e+00
1.720000028610229492e+00,2.295532226562500000e+00
1.759999990463256836e+00,3.054603338241577148e+00
1.799999952316284180e+00,3.800420761108398438e+00
1.840000033378601074e+00,2.339528799057006836e+00
1.879999995231628418e+00,2.928821325302124023e+00
1.920000076293945312e+00,3.754784584045410156e+00
1.960000038146972656e+00,4.669549942016601562e+00
2.000000000000000000e+00,5.708508491516113281e+00
2.039999961853027344e+00,6.918982505798339844e+00
2.079999923706054688e+00,8.377349853515625000e+00
2.119999885559082031e+00,7.248484611511230469e+00
2.160000085830688477e+00,8.357459068298339844e+00
2.200000047683715820e+00,8.532636642456054688e+00
2.240000009536743164e+00,9.691530227661132812e+00
2.279999971389770508e+00,1.104070472717285156e+01
2.319999933242797852e+00,1.269603729248046875e+01
2.360000133514404297e+00,1.429251098632812500e+01
2.400000095367431641e+00,1.581682300567626953e+01
2.440000057220458984e+00,1.754538917541503906e+01
2.480000019073486328e+00,1.957710838317871094e+01
2.519999980926513672e+00,2.204848289489746094e+01
2.559999942779541016e+00,2.475509834289550781e+01
2.599999904632568359e+00,2.721335601806640625e+01
2.639999866485595703e+00,2.743465995788574219e+01
2.679999828338623047e+00,2.987629699707031250e+01
2.720000028610229492e+00,3.250080108642578125e+01
2.759999990463256836e+00,3.533615875244140625e+01
2.799999952316284180e+00,3.838319015502929688e+01
2.840000152587890625e+00,4.153059768676757812e+01
2.880000114440917969e+00,4.426708221435546875e+01
2.920000076293945312e+00,4.712511062622070312e+01
2.960000038146972656e+00,5.015130233764648438e+01
3.000000000000000000e+00,5.334062194824218750e+01
3.039999961853027344e+00,5.484953308105468750e+01
3.079999923706054688e+00,5.794012069702148438e+01
3.119999885559082031e+00,6.112857055664062500e+01
3.159999847412109375e+00,6.375904464721679688e+01
3.199999809265136719e+00,6.646054077148437500e+01
3.240000009536743164e+00,6.923654937744140625e+01
3.279999971389770508e+00,7.099507141113281250e+01
3.319999933242797852e+00,7.529857635498046875e+01
3.360000133514404297e+00,7.982740783691406250e+01
3.400000095367431641e+00,8.456717681884765625e+01
3.440000057220458984e+00,8.800041961669921875e+01
3.480000019073486328e+00,9.043035125732421875e+01
3.519999980926513672e+00,8.744912719726562500e+01
3.559999942779541016e+00,8.985997772216796875e+01
3.599999904632568359e+00,9.235566711425781250e+01
3.639999866485595703e+00,9.488208007812500000e+01
3.679999828338623047e+00,9.744284057617187500e+01
3.719999790191650391e+00,9.719467163085937500e+01
3.759999752044677734e+00,9.983159637451171875e+01
3.800000190734863281e+00,1.021473388671875000e+02
3.840000152587890625e+00,1.042393493652343750e+02
3.880000114440917969e+00,1.063344421386718750e+02
3.920000076293945312e+00,1.089377593994140625e+02
3.960000038146972656e+00,1.117390747070312500e+02
4.000000000000000000e+00,1.130223159790039062e+02
4.039999961853027344e+00,1.157577972412109375e+02
4.079999923706054688e+00,1.185232772827148438e+02
4.119999885559082031e+00,1.213222808837890625e+02
4.159999847412109375e+00,1.241207427978515625e+02
4.199999809265136719e+00,1.265313568115234375e+02
4.239999771118164062e+00,1.289530487060546875e+02
4.279999732971191406e+00,1.313921661376953125e+02
4.320000171661376953e+00,1.286167144775390625e+02
4.360000133514404297e+00,1.291853790283203125e+02
4.400000095367431641e+00,1.313027648925781250e+02
4.440000057220458984e+00,1.334310455322265625e+02
4.480000019073486328e+00,1.355813903808593750e+02
4.519999980926513672e+00,1.377568817138671875e+02
4.559999942779541016e+00,1.399286041259765625e+02
4.599999904632568359e+00,1.382111206054687500e+02
4.639999866485595703e+00,1.401847991943359375e+02
4.679999828338623047e+00,1.419751434326171875e+02
4.719999790191650391e+00,1.437555389404296875e+02
4.759999752044677734e+00,1.455354614257812500e+02
4.799999713897705078e+00,1.473143005371093750e+02
4.840000152587890625e+00,1.490829772949218750e+02
4.880000114440917969e+00,1.508468170166015625e+02
4.920000076293945312e+00,1.508200073242187500e+02
4.960000038146972656e+00,1.525816497802734375e+02
5.000000000000000000e+00,1.543010406494140625e+02
5.039999961853027344e+00,1.560756378173828125e+02
5.079999923706054688e+00,1.577197113037109375e+02
5.119999885559082031e+00,1.593583831787109375e+02
5.159999847412109375e+00,1.609903564453125000e+02
5.199999809265136719e+00,1.626133880615234375e+02
5.239999771118164062e+00,1.642290039062500000e+02
5.279999732971191406e+00,1.658420867919921875e+02
5.320000171661376953e+00,1.674523620605468750e+02
5.360000133514404297e+00,1.690601348876953125e+02
5.400000095367431641e+00,1.706618957519531250e+02
5.440000057220458984e+00,1.722559051513671875e+02
5.480000019073486328e+00,1.738460235595703125e+02
5.519999980926513672e+00,1.754155273437500000e+02
5.559999942779541016e+00,1.768653411865234375e+02
5.599999904632568359e+00,1.781887207031250000e+02
5.639999866485595703e+00,1.795048980712890625e+02
5.679999828338623047e+00,1.808149108886718750e+02
5.719999790191650391e+00,1.821523132324218750e+02
5.759999752044677734e+00,1.834841156005859375e+02
5.799999713897705078e+00,1.847951660156250000e+02
5.839999675750732422e+00,1.860864868164062500e+02
5.879999637603759766e+00,1.873722534179687500e+02
5.919999599456787109e+00,1.886250915527343750e+02
5.960000038146972656e+00,1.898718566894531250e+02
6.000000000000000000e+00,1.910462646484375000e+02
6.039999961853027344e+00,1.921466217041015625e+02
6.079999923706054688e+00,1.932401275634765625e+02
6.119999885559082031e+00,1.942590026855468750e+02
6.159999847412109375e+00,1.952115783691406250e+02
6.199999809265136719e+00,1.961640625000000000e+02
6.239999771118164062e+00,1.971169586181640625e+02
6.279999732971191406e+00,1.980631713867187500e+02
6.319999694824218750e+00,1.989924774169921875e+02
6.359999656677246094e+00,1.999149627685546875e+02
6.399999618530273438e+00,2.008259582519531250e+02
6.439999580383300781e+00,2.017256622314453125e+02
6.480000019073486328e+00,2.026189117431640625e+02
6.519999980926513672e+00,2.034934387207031250e+02
6.559999942779541016e+00,2.043617706298828125e+02
6.599999904632568359e+00,2.052192077636718750e+02
6.639999866485595703e+00,2.060658264160156250e+02
6.679999828338623047e+00,2.069066467285156250e+02
6.719999790191650391e+00,2.077222595214843750e+02
6.759999752044677734e+00,2.084472503662109375e+02
6.799999713897705078e+00,2.091567230224609375e+02
6.839999675750732422e+00,2.098510437011718750e+02
6.879999637603759766e+00,2.105396728515625000e+02
6.919999599456787109e+00,2.112137756347656250e+02
6.959999561309814453e+00,2.118822326660156250e+02
7.000000000000000000e+00,2.124968109130859375e+02
7.039999961853027344e+00,2.130570220947265625e+02
7.079999923706054688e+00,2.136129455566406250e+02
7.119999885559082031e+00,2.130343017578125000e+02
7.159999847412109375e+00,2.135734405517578125e+02
7.199999809265136719e+00,2.141189270019531250e+02
7.239999771118164062e+00,2.146714019775390625e+02
7.279999732971191406e+00,2.152188720703125000e+02
7.319999694824218750e+00,2.157647705078125000e+02
7.359999656677246094e+00,2.163055419921875000e+02
7.399999618530273438e+00,2.168327636718750000e+02
7.439999580383300781e+00,2.173464050292968750e+02
7.479999542236328125e+00,2.178555297851562500e+02
7.519999980926513672e+00,2.183508911132812500e+02
7.559999942779541016e+00,2.188416900634765625e+02
7.599999904632568359e+00,2.193166046142578125e+02
7.639999866485595703e+00,2.197752075195312500e+02
7.679999828338623047e+00,2.202296295166015625e+02
7.719999790191650391e+00,2.206947021484375000e+02
7.759999752044677734e+00,2.211561126708984375e+02
7.799999713897705078e+00,2.215993041992187500e+02
7.839999675750732422e+00,2.220235748291015625e+02
7.879999637603759766e+00,2.224438171386718750e+02
7.919999599456787109e+00,2.228582153320312500e+02
7.959999561309814453e+00,2.232685546875000000e+02
7.999999523162841797e+00,2.236367645263671875e+02
8.039999961853027344e+00,2.239627990722656250e+02
8.079999923706054688e+00,2.242851409912109375e+02
8.119999885559082031e+00,2.245924072265625000e+02
8.159999847412109375e+00,2.248384857177734375e+02
8.199999809265136719e+00,2.250453948974609375e+02
8.239999771118164062e+00,2.252413330078125000e+02
8.279999732971191406e+00,2.255180664062500000e+02
8.319999694824218750e+00,2.258145294189453125e+02
8.359999656677246094e+00,2.261075592041015625e+02
8.399999618530273438e+00,2.263547973632812500e+02
8.439999580383300781e+00,2.265565185546875000e+02
8.479999542236328125e+00,2.267546539306640625e+02
8.520000457763671875e+00,2.269303894042968750e+02
8.560000419616699219e+00,2.271025390625000000e+02
8.600000381469726562e+00,2.272297210693359375e+02
8.640000343322753906e+00,2.273116149902343750e+02
8.680000305175781250e+00,2.273898468017578125e+02
8.720000267028808594e+00,2.274980773925781250e+02
8.760000228881835938e+00,2.276027984619140625e+02
8.800000190734863281e+00,2.276670989990234375e+02
8.840000152587890625e+00,2.276909179687500000e+02
8.880000114440917969e+00,2.277110900878906250e+02
8.920000076293945312e+00,2.277314147949218750e+02
8.960000038146972656e+00,2.277166748046875000e+02
9.000000000000000000e+00,2.276436462402343750e+02
9.039999961853027344e+00,2.275299682617187500e+02
9.079999923706054688e+00,2.274126892089843750e+02
9.119999885559082031e+00,2.272987365722656250e+02
9.159999847412109375e+00,2.273110961914062500e+02
9.199999809265136719e+00,2.272788238525390625e+02
9.239999771118164062e+00,2.272017669677734375e+02
9.279999732971191406e+00,2.271208648681640625e+02
9.319999694824218750e+00,2.270807037353515625e+02
9.359999656677246094e+00,2.270366516113281250e+02
9.399999618530273438e+00,2.269417419433593750e+02
9.439999580383300781e+00,2.267958526611328125e+02
9.479999542236328125e+00,2.266460418701171875e+02
9.519999504089355469e+00,2.264982910156250000e+02
9.560000419616699219e+00,2.263469238281250000e+02
9.600000381469726562e+00,2.260253906250000000e+02
9.640000343322753906e+00,2.255834197998046875e+02
9.680000305175781250e+00,2.252868041992187500e+02
9.720000267028808594e+00,2.249683074951171875e+02
9.760000228881835938e+00,2.246459197998046875e+02
9.800000190734863281e+00,2.239768371582031250e+02
9.840000152587890625e+00,2.229544830322265625e+02
9.880000114440917969e+00,2.219080505371093750e+02
9.920000076293945312e+00,2.208832244873046875e+02
9.960000038146972656e+00,2.202781219482421875e+02
1.000000000000000000e+01,2.175371093750000000e+02
1.003999996185302734e+01,2.123543395996093750e+02
1.007999992370605469e+01,2.071596527099609375e+02
1.011999988555908203e+01,2.019454345703125000e+02
1.015999984741210938e+01,1.967217407226562500e+02
1.019999980926513672e+01,1.909743347167968750e+02
1.023999977111816406e+01,1.914198303222656250e+02
1.027999973297119141e+01,1.918578796386718750e+02
1.032000064849853516e+01,1.922857971191406250e+02
1.036000061035156250e+01,1.927065582275390625e+02
1.040000057220458984e+01,1.938569946289062500e+02
1.044000053405761719e+01,1.953652496337890625e+02
1.048000049591064453e+01,1.957165985107421875e+02
1.052000045776367188e+01,1.960560913085937500e+02
1.056000041961669922e+01,1.963897857666015625e+02
1.060000038146972656e+01,1.962114562988281250e+02
1.064000034332275391e+01,1.955248413085937500e+02
1.068000030517578125e+01,1.948366241455078125e+02
1.072000026702880859e+01,1.941341094970703125e+02
1.076000022888183594e+01,1.934303436279296875e+02
1.080000019073486328e+01,1.926271972656250000e+02
1.084000015258789062e+01,1.917128143310546875e+02
1.088000011444091797e+01,1.907924804687500000e+02
1.092000007629394531e+01,1.898874816894531250e+02
1.096000003814697266e+01,1.889827575683593750e+02
1.100000000000000000e+01,1.879855804443359375e+02
1.103999996185302734e+01,1.868968200683593750e+02
1.107999992370605469e+01,1.858097686767578125e+02
1.111999988555908203e+01,1.857046966552734375e+02
1.115999984741210938e+01,1.855976409912109375e+02
1.119999980926513672e+01,1.850589599609375000e+02
1.123999977111816406e+01,1.840880279541015625e+02
1.127999973297119141e+01,1.831140289306640625e+02
1.131999969482421875e+01,1.821417236328125000e+02
1.136000061035156250e+01,1.811665344238281250e+02
1.140000057220458984e+01,1.793049316406250000e+02
1.144000053405761719e+01,1.765539855957031250e+02
1.148000049591064453e+01,1.737957611083984375e+02
1.152000045776367188e+01,1.708939971923828125e+02
1.156000041961669922e+01,1.629401397705078125e+02
1.160000038146972656e+01,1.608723754882812500e+02
1.164000034332275391e+01,1.603290100097656250e+02
1.168000030517578125e+01,1.597805023193359375e+02
1.172000026702880859e+01,1.592199096679687500e+02
1.176000022888183594e+01,1.586516723632812500e+02
1.180000019073486328e+01,1.579682617187500000e+02
1.184000015258789062e+01,1.571733703613281250e+02
1.188000011444091797e+01,1.563784027099609375e+02
1.192000007629394531e+01,1.555844879150390625e+02
1.196000003814697266e+01,1.547856445312500000e+02
1.200000000000000000e+01,1.538703613281250000e+02
1.203999996185302734e+01,1.528393859863281250e+02
1.207999992370605469e+01,1.521247100830078125e+02
1.211999988555908203e+01,1.523027343750000000e+02
1.215999984741210938e+01,1.524798736572265625e+02
1.219999980926513672e+01,1.525909423828125000e+02
1.223999977111816406e+01,1.526356811523437500e+02
1.227999973297119141e+01,1.526796722412109375e+02
1.231999969482421875e+01,1.527574005126953125e+02
1.236000061035156250e+01,1.528345031738281250e+02
1.240000057220458984e+01,1.528144073486328125e+02
1.244000053405761719e+01,1.526975402832031250e+02
1.248000049591064453e+01,1.525797729492187500e+02
1.252000045776367188e+01,1.524395904541015625e+02
1.256000041961669922e+01,1.522988433837890625e+02
1.260000038146972656e+01,1.521024780273437500e+02
1.264000034332275391e+01,1.518507080078125000e+02
1.268000030517578125e+01,1.515984344482421875e+02
1.272000026702880859e+01,1.513421478271484375e+02
1.276000022888183594e+01,1.510852508544921875e+02
1.280000019073486328e+01,1.507920837402343750e+02
1.284000015258789062e+01,1.504626770019531250e+02
1.288000011444091797e+01,1.501334228515625000e+02
1.292000007629394531e+01,1.498016204833984375e+02
1.296000003814697266e+01,1.494694366455078125e+02
1.300000000000000000e+01,1.489844360351562500e+02
1.303999996185302734e+01,1.483470611572265625e+02
1.307999992370605469e+01,1.477102508544921875e+02
1.311999988555908203e+01,1.470543823242187500e+02
1.315999984741210938e+01,1.463973541259765625e+02
1.319999980926513672e+01,1.456543884277343750e+02
1.323999977111816406e+01,1.448263092041015625e+02
1.327999973297119141e+01,1.439402465820312500e+02
1.331999969482421875e+01,1.415901184082031250e+02
1.335999965667724609e+01,1.408045349121093750e+02
1.340000057220458984e+01,1.402647552490234375e+02
1.344000053405761719e+01,1.399085083007812500e+02
1.348000049591064453e+01,1.395515441894531250e+02
1.352000045776367188e+01,1.391756134033203125e+02
1.356000041961669922e+01,1.387991943359375000e+02
1.360000038146972656e+01,1.383750000000000000e+02
1.364000034332275391e+01,1.379033813476562500e+02
1.368000030517578125e+01,1.374309082031250000e+02
1.372000026702880859e+01,1.369725952148437500e+02
1.376000022888183594e+01,1.365136566162109375e+02
1.380000019073486328e+01,1.360170440673828125e+02
1.384000015258789062e+01,1.349480438232421875e+02
1.388000011444091797e+01,1.344020843505859375e+02
1.392000007629394531e+01,1.341227569580078125e+02
1.396000003814697266e+01,1.338438720703125000e+02
1.400000000000000000e+01,1.335919647216796875e+02
1.403999996185302734e+01,1.333670501708984375e+02
1.407999992370605469e+01,1.331415100097656250e+02
1.411999988555908203e+01,1.329068298339843750e+02
1.415999984741210938e+01,1.326716156005859375e+02
1.419999980926513672e+01,1.324324951171875000e+02
1.423999977111816406e+01,1.321894378662109375e+02
1.427999973297119141e+01,1.319458923339843750e+02
1.431999969482421875e+01,1.316943054199218750e+02
1.435999965667724609e+01,1.314423522949218750e+02
1.439999961853027344e+01,1.311753387451171875e+02
1.444000053405761719e+01,1.308893737792968750e+02
1.448000049591064453e+01,1.306033477783203125e+02
1.452000045776367188e+01,1.303459167480468750e+02
1.456000041961669922e+01,1.300881042480468750e+02
1.460000038146972656e+01,1.298269653320312500e+02
1.464000034332275391e+01,1.295623931884765625e+02
1.468000030517578125e+01,1.292975463867187500e+02
1.472000026702880859e+01,1.290074157714843750e+02
1.476000022888183594e+01,1.287170562744140625e+02
1.480000019073486328e+01,1.284245300292968750e+02
1.484000015258789062e+01,1.281298065185546875e+02
1.488000011444091797e+01,1.278345489501953125e+02
1.492000007629394531e+01,1.275449600219726562e+02
1.496000003814697266e+01,1.272551803588867188e+02
1.500000000000000000e+01,1.269654464721679688e+02
1.503999996185302734e+01,1.266757965087890625e+02
1.507999992370605469e+01,1.263859329223632812e+02
1.511999988555908203e+01,1.261019897460937500e+02
1.515999984741210938e+01,1.258178329467773438e+02
1.519999980926513672e+01,1.255301208496093750e+02
1.523999977111816406e+01,1.252387924194335938e+02
1.527999973297119141e+01,1.249472656250000000e+02
1.531999969482421875e+01,1.246501312255859375e+02
1.535999965667724609e+01,1.243527908325195312e+02
1.539999961853027344e+01,1.240567016601562500e+02
1.544000053405761719e+01,1.237618560791015625e+02
1.548000049591064453e+01,1.234668426513671875e+02
1.552000045776367188e+01,1.231767120361328125e+02
1.556000041961669922e+01,1.228862915039062500e+02
1.560000038146972656e+01,1.226037292480468750e+02
1.564000034332275391e+01,1.223289489746093750e+02
1.568000030517578125e+01,1.220539321899414062e+02
1.572000026702880859e+01,1.217382202148437500e+02
1.576000022888183594e+01,1.214218444824218750e+02
1.580000019073486328e+01,1.210995101928710938e+02
1.584000015258789062e+01,1.207711029052734375e+02
1.588000011444091797e+01,1.204403915405273438e+02
1.592000007629394531e+01,1.201121749877929688e+02
1.596000003814697266e+01,1.197839202880859375e+02
1.600000000000000000e+01,1.194566726684570312e+02
1.603999900817871094e+01,1.191303787231445312e+02
1.607999992370605469e+01,1.188040161132812500e+02
1.611999893188476562e+01,1.184737548828125000e+02
1.615999984741210938e+01,1.181434020996093750e+02
1.619999885559082031e+01,1.178130340576171875e+02
1.623999977111816406e+01,1.174825286865234375e+02
1.627999877929687500e+01,1.171520614624023438e+02
1.631999969482421875e+01,1.168329925537109375e+02
1.635999870300292969e+01,1.165138168334960938e+02
1.639999961853027344e+01,1.161945571899414062e+02
1.643999862670898438e+01,1.158752593994140625e+02
1.647999954223632812e+01,1.155557556152343750e+02
1.652000045776367188e+01,1.152309112548828125e+02
1.655999946594238281e+01,1.149060287475585938e+02
1.660000038146972656e+01,1.145811080932617188e+02
1.663999938964843750e+01,1.142561111450195312e+02
1.668000030517578125e+01,1.139310455322265625e+02
1.671999931335449219e+01,1.136129837036132812e+02
1.676000022888183594e+01,1.132948150634765625e+02
1.679999923706054688e+01,1.129765014648437500e+02
1.684000015258789062e+01,1.126580963134765625e+02
1.687999916076660156e+01,1.123396148681640625e+02
1.692000007629394531e+01,1.120233993530273438e+02
1.695999908447265625e+01,1.117070770263671875e+02
1.700000000000000000e+01,1.113957366943359375e+02
1.703999900817871094e+01,1.110891647338867188e+02
1.707999992370605469e+01,1.107825012207031250e+02
1.711999893188476562e+01,1.104677352905273438e+02
1.715999984741210938e+01,1.101529083251953125e+02
1.719999885559082031e+01,1.098381423950195312e+02
1.723999977111816406e+01,1.095234069824218750e+02
1.727999877929687500e+01,1.092221908569335938e+02
1.731999969482421875e+01,1.089431762695312500e+02
1.735999870300292969e+01,1.086641006469726562e+02
1.739999961853027344e+01,1.083847808837890625e+02
1.743999862670898438e+01,1.081048736572265625e+02
1.747999954223632812e+01,1.078236160278320312e+02
