# Start of Energy Bin (keV), Effective Area (cm^2)
1.600000023841857910e+00,5.296959877014160156e-01
1.639999985694885254e+00,7.192514538764953613e-01
1.680000066757202148e+00,9.738540053367614746e-01
1.720000028610229492e+00,1.315101742744445801e+00
1.759999990463256836e+00,1.747514843940734863e+00
1.799999952316284180e+00,2.169767379760742188e+00
1.840000033378601074e+00,1.332489132881164551e+00
1.879999995231628418e+00,1.667063593864440918e+00
1.920000076293945312e+00,2.139626979827880859e+00
1.960000038146972656e+00,2.663906574249267578e+00
2.000000000000000000e+00,3.261161804199218750e+00
2.039999961853027344e+00,3.959219455718994141e+00
2.079999923706054688e+00,4.801593303680419922e+00
2.119999885559082031e+00,4.157799243927001953e+00
2.160000085830688477e+00,4.795513153076171875e+00
2.200000047683715820e+00,4.896977424621582031e+00
2.240000009536743164e+00,5.562365531921386719e+00
2.279999971389770508e+00,6.337054252624511719e+00
2.319999933242797852e+00,7.290276050567626953e+00
2.360000133514404297e+00,8.210494041442871094e+00
2.400000095367431641e+00,9.089803695678710938e+00
2.440000057220458984e+00,1.008700656890869141e+01
2.480000019073486328e+00,1.125930976867675781e+01
2.519999980926513672e+00,1.268210983276367188e+01
2.559999942779541016e+00,1.423990726470947266e+01
2.599999904632568359e+00,1.565399265289306641e+01
2.639999866485595703e+00,1.578121566772460938e+01
2.679999828338623047e+00,1.718394470214843750e+01
2.720000028610229492e+00,1.869322586059570312e+01
2.759999990463256836e+00,2.032373619079589844e+01
2.799999952316284180e+00,2.207571601867675781e+01
2.840000152587890625e+00,2.388618087768554688e+01
2.880000114440917969e+00,2.546085929870605469e+01
2.920000076293945312e+00,2.710804367065429688e+01
2.960000038146972656e+00,2.885237884521484375e+01
3.000000000000000000e+00,3.063273429870605469e+01
3.039999961853027344e+00,3.138406372070312500e+01
3.079999923706054688e+00,3.302986526489257812e+01
3.119999885559082031e+00,3.471126174926757812e+01
3.159999847412109375e+00,3.606228637695312500e+01
3.199999809265136719e+00,3.744094848632812500e+01
3.240000009536743164e+00,3.884863662719726562e+01
3.279999971389770508e+00,3.967383193969726562e+01
3.319999933242797852e+00,4.237033462524414062e+01
3.360000133514404297e+00,4.522311782836914062e+01
3.400000095367431641e+00,4.822037506103515625e+01
3.440000057220458984e+00,5.025524139404296875e+01
3.480000019073486328e+00,5.163965225219726562e+01
3.519999980926513672e+00,4.993046188354492188e+01
3.559999942779541016e+00,5.129995346069335938e+01
3.599999904632568359e+00,5.271749877929687500e+01
3.639999866485595703e+00,5.415219497680664062e+01
3.679999828338623047e+00,5.560604095458984375e+01
3.719999790191650391e+00,5.545668792724609375e+01
3.759999752044677734e+00,5.695325088500976562e+01
3.800000190734863281e+00,5.826606750488281250e+01
3.840000152587890625e+00,5.945079040527343750e+01
3.880000114440917969e+00,6.063685989379882812e+01
3.920000076293945312e+00,6.212353515625000000e+01
3.960000038146972656e+00,6.372550201416015625e+01
4.000000000000000000e+00,6.446176910400390625e+01
4.039999961853027344e+00,6.602638244628906250e+01
4.079999923706054688e+00,6.760830688476562500e+01
4.119999885559082031e+00,6.920850372314453125e+01
4.159999847412109375e+00,7.080856323242187500e+01
4.199999809265136719e+00,7.218740844726562500e+01
4.239999771118164062e+00,7.357260131835937500e+01
4.279999732971191406e+00,7.496786499023437500e+01
4.320000171661376953e+00,7.338301849365234375e+01
4.360000133514404297e+00,7.370836639404296875e+01
4.400000095367431641e+00,7.491802215576171875e+01
4.440000057220458984e+00,7.613384246826171875e+01
4.480000019073486328e+00,7.736231994628906250e+01
4.519999980926513672e+00,7.860723876953125000e+01
4.559999942779541016e+00,7.985013580322265625e+01
4.599999904632568359e+00,7.887358093261718750e+01
4.639999866485595703e+00,8.000338745117187500e+01
4.679999828338623047e+00,8.102863311767578125e+01
4.719999790191650391e+00,8.205215454101562500e+01
4.759999752044677734e+00,8.307561492919921875e+01
4.799999713897705078e+00,8.409849548339843750e+01
4.840000152587890625e+00,8.511563110351562500e+01
4.880000114440917969e+00,8.613020324707031250e+01
4.920000076293945312e+00,8.611617279052734375e+01
4.960000038146972656e+00,8.712333679199218750e+01
5.000000000000000000e+00,8.810626983642578125e+01
5.039999961853027344e+00,8.908974456787109375e+01
5.079999923706054688e+00,8.997789001464843750e+01
5.119999885559082031e+00,9.086447143554687500e+01
5.159999847412109375e+00,9.174629211425781250e+01
5.199999809265136719e+00,9.262190246582031250e+01
5.239999771118164062e+00,9.349216461181640625e+01
5.279999732971191406e+00,9.436006164550781250e+01
5.320000171661376953e+00,9.522463989257812500e+01
5.360000133514404297e+00,9.608683776855468750e+01
5.400000095367431641e+00,9.694446563720703125e+01
5.440000057220458984e+00,9.779653930664062500e+01
5.480000019073486328e+00,9.864545440673828125e+01
5.519999980926513672e+00,9.949415588378906250e+01
5.559999942779541016e+00,1.002742919921875000e+02
5.599999904632568359e+00,1.009818649291992188e+02
5.639999866485595703e+00,1.016844863891601562e+02
5.679999828338623047e+00,1.023830184936523438e+02
5.719999790191650391e+00,1.030742187500000000e+02
5.759999752044677734e+00,1.037613677978515625e+02
5.799999713897705078e+00,1.044353942871093750e+02
5.839999675750732422e+00,1.050969085693359375e+02
5.879999637603759766e+00,1.057544174194335938e+02
5.919999599456787109e+00,1.064110794067382812e+02
5.960000038146972656e+00,1.070636749267578125e+02
6.000000000000000000e+00,1.076933288574218750e+02
6.039999961853027344e+00,1.082994308471679688e+02
6.079999923706054688e+00,1.089015045166015625e+02
6.119999885559082031e+00,1.094472885131835938e+02
6.159999847412109375e+00,1.099554443359375000e+02
6.199999809265136719e+00,1.104628753662109375e+02
6.239999771118164062e+00,1.109699096679687500e+02
6.279999732971191406e+00,1.114729003906250000e+02
6.319999694824218750e+00,1.119731292724609375e+02
6.359999656677246094e+00,1.124692993164062500e+02
6.399999618530273438e+00,1.129580688476562500e+02
6.439999580383300781e+00,1.134395370483398438e+02
6.480000019073486328e+00,1.139171752929687500e+02
6.519999980926513672e+00,1.143926925659179688e+02
6.559999942779541016e+00,1.148646240234375000e+02
6.599999904632568359e+00,1.153292541503906250e+02
6.639999866485595703e+00,1.157866439819335938e+02
6.679999828338623047e+00,1.162406005859375000e+02
6.719999790191650391e+00,1.166688156127929688e+02
6.759999752044677734e+00,1.170459136962890625e+02
6.799999713897705078e+00,1.174123306274414062e+02
6.839999675750732422e+00,1.177682952880859375e+02
6.879999637603759766e+00,1.181208572387695312e+02
6.919999599456787109e+00,1.184691009521484375e+02
6.959999561309814453e+00,1.188139877319335938e+02
7.000000000000000000e+00,1.191270980834960938e+02
7.039999961853027344e+00,1.194080963134765625e+02
7.079999923706054688e+00,1.196865463256835938e+02
7.119999885559082031e+00,1.193461074829101562e+02
7.159999847412109375e+00,1.196319046020507812e+02
7.199999809265136719e+00,1.199148406982421875e+02
7.239999771118164062e+00,1.201952819824218750e+02
7.279999732971191406e+00,1.204727401733398438e+02
7.319999694824218750e+00,1.207285842895507812e+02
7.359999656677246094e+00,1.209813003540039062e+02
7.399999618530273438e+00,1.212194671630859375e+02
7.439999580383300781e+00,1.214430465698242188e+02
7.479999542236328125e+00,1.216637878417968750e+02
7.519999980926513672e+00,1.218819580078125000e+02
7.559999942779541016e+00,1.220972976684570312e+02
7.599999904632568359e+00,1.222919540405273438e+02
7.639999866485595703e+00,1.224656372070312500e+02
7.679999828338623047e+00,1.226366043090820312e+02
7.719999790191650391e+00,1.228263549804687500e+02
7.759999752044677734e+00,1.230137329101562500e+02
7.799999713897705078e+00,1.231788177490234375e+02
7.839999675750732422e+00,1.233211517333984375e+02
7.879999637603759766e+00,1.234608306884765625e+02
7.919999599456787109e+00,1.235839920043945312e+02
7.959999561309814453e+00,1.237044982910156250e+02
7.999999523162841797e+00,1.237928619384765625e+02
8.039999961853027344e+00,1.238490905761718750e+02
8.079999923706054688e+00,1.239028167724609375e+02
8.119999885559082031e+00,1.239712142944335938e+02
8.159999847412109375e+00,1.240054473876953125e+02
8.199999809265136719e+00,1.240196990966796875e+02
8.239999771118164062e+00,1.240415191650390625e+02
8.279999732971191406e+00,1.241433639526367188e+02
8.319999694824218750e+00,1.242432098388671875e+02
8.359999656677246094e+00,1.243407974243164062e+02
8.399999618530273438e+00,1.244191284179687500e+02
8.439999580383300781e+00,1.244784317016601562e+02
8.479999542236328125e+00,1.245354080200195312e+02
8.520000457763671875e+00,1.245826950073242188e+02
8.560000419616699219e+00,1.246276473999023438e+02
8.600000381469726562e+00,1.246546096801757812e+02
8.640000343322753906e+00,1.246633758544921875e+02
8.680000305175781250e+00,1.246698226928710938e+02
8.720000267028808594e+00,1.247094116210937500e+02
8.760000228881835938e+00,1.247467498779296875e+02
8.800000190734863281e+00,1.247688827514648438e+02
8.840000152587890625e+00,1.247758331298828125e+02
8.880000114440917969e+00,1.247804870605468750e+02
8.920000076293945312e+00,1.247731552124023438e+02
8.960000038146972656e+00,1.247462921142578125e+02
9.000000000000000000e+00,1.246958923339843750e+02
9.039999961853027344e+00,1.246316299438476562e+02
9.079999923706054688e+00,1.245651626586914062e+02
9.119999885559082031e+00,1.245035095214843750e+02
9.159999847412109375e+00,1.245149688720703125e+02
9.199999809265136719e+00,1.245098724365234375e+02
9.239999771118164062e+00,1.244881362915039062e+02
9.279999732971191406e+00,1.244640655517578125e+02
9.319999694824218750e+00,1.244692764282226562e+02
9.359999656677246094e+00,1.244721374511718750e+02
9.399999618530273438e+00,1.244505767822265625e+02
9.439999580383300781e+00,1.244045104980468750e+02
9.479999542236328125e+00,1.243560256958007812e+02
9.519999504089355469e+00,1.243164749145507812e+02
9.560000419616699219e+00,1.242746505737304688e+02
9.600000381469726562e+00,1.241375732421875000e+02
9.640000343322753906e+00,1.239323883056640625e+02
9.680000305175781250e+00,1.238066940307617188e+02
9.720000267028808594e+00,1.236745071411132812e+02
9.760000228881835938e+00,1.235398178100585938e+02
9.800000190734863281e+00,1.231910018920898438e+02
9.840000152587890625e+00,1.226241760253906250e+02
9.880000114440917969e+00,1.220432968139648438e+02
9.920000076293945312e+00,1.214889755249023438e+02
9.960000038146972656e+00,1.211626129150390625e+02
1.000000000000000000e+01,1.195973129272460938e+02
1.003999996185302734e+01,1.166293258666992188e+02
1.007999992370605469e+01,1.136580276489257812e+02
1.011999988555908203e+01,1.106719741821289062e+02
1.015999984741210938e+01,1.076847457885742188e+02
1.019999980926513672e+01,1.044082031250000000e+02
1.023999977111816406e+01,1.047294921875000000e+02
1.027999973297119141e+01,1.050468902587890625e+02
1.032000064849853516e+01,1.053724136352539062e+02
1.036000061035156250e+01,1.056942443847656250e+02
1.040000057220458984e+01,1.064274444580078125e+02
1.044000053405761719e+01,1.073445587158203125e+02
1.048000049591064453e+01,1.075528945922851562e+02
1.052000045776367188e+01,1.077393875122070312e+02
1.056000041961669922e+01,1.079218902587890625e+02
1.060000038146972656e+01,1.077942123413085938e+02
1.064000034332275391e+01,1.073587570190429688e+02
1.068000030517578125e+01,1.069221267700195312e+02
1.072000026702880859e+01,1.064838333129882812e+02
1.076000022888183594e+01,1.060444793701171875e+02
1.080000019073486328e+01,1.055434875488281250e+02
1.084000015258789062e+01,1.049744949340820312e+02
1.088000011444091797e+01,1.044021453857421875e+02
1.092000007629394531e+01,1.038162536621093750e+02
1.096000003814697266e+01,1.032306594848632812e+02
1.100000000000000000e+01,1.025887680053710938e+02
1.103999996185302734e+01,1.018912506103515625e+02
1.107999992370605469e+01,1.011951599121093750e+02
1.111999988555908203e+01,1.010915603637695312e+02
1.115999984741210938e+01,1.009869384765625000e+02
1.119999980926513672e+01,1.006270523071289062e+02
1.123999977111816406e+01,1.000121307373046875e+02
1.127999973297119141e+01,9.939625549316406250e+01
1.131999969482421875e+01,9.878918457031250000e+01
1.136000061035156250e+01,9.818119049072265625e+01
1.140000057220458984e+01,9.711995697021484375e+01
1.144000053405761719e+01,9.560398864746093750e+01
1.148000049591064453e+01,9.408483886718750000e+01
1.152000045776367188e+01,9.251435089111328125e+01
1.156000041961669922e+01,8.826542663574218750e+01
1.160000038146972656e+01,8.718615722656250000e+01
1.164000034332275391e+01,8.691667175292968750e+01
1.168000030517578125e+01,8.664423370361328125e+01
1.172000026702880859e+01,8.635216522216796875e+01
1.176000022888183594e+01,8.605590820312500000e+01
1.180000019073486328e+01,8.567733001708984375e+01
1.184000015258789062e+01,8.521862030029296875e+01
1.188000011444091797e+01,8.476004791259765625e+01
1.192000007629394531e+01,8.428857421875000000e+01
1.196000003814697266e+01,8.381477355957031250e+01
1.200000000000000000e+01,8.328009796142578125e+01
1.203999996185302734e+01,8.268499755859375000e+01
1.207999992370605469e+01,8.227483367919921875e+01
1.211999988555908203e+01,8.242277526855468750e+01
1.215999984741210938e+01,8.257042694091796875e+01
1.219999980926513672e+01,8.267678070068359375e+01
1.223999977111816406e+01,8.274161529541015625e+01
1.227999973297119141e+01,8.280606079101562500e+01
1.231999969482421875e+01,8.284512329101562500e+01
1.236000061035156250e+01,8.288387298583984375e+01
1.240000057220458984e+01,8.286632537841796875e+01
1.244000053405761719e+01,8.279277038574218750e+01
1.248000049591064453e+01,8.271873474121093750e+01
1.252000045776367188e+01,8.264829254150390625e+01
1.256000041961669922e+01,8.257749938964843750e+01
1.260000038146972656e+01,8.247677612304687500e+01
1.264000034332275391e+01,8.234619140625000000e+01
1.268000030517578125e+01,8.221533203125000000e+01
1.272000026702880859e+01,8.208478546142578125e+01
1.276000022888183594e+01,8.195388031005859375e+01
1.280000019073486328e+01,8.180484771728515625e+01
1.284000015258789062e+01,8.163770294189453125e+01
1.288000011444091797e+01,8.147058105468750000e+01
1.292000007629394531e+01,8.129348754882812500e+01
1.296000003814697266e+01,8.111615753173828125e+01
1.300000000000000000e+01,8.086384582519531250e+01
1.303999996185302734e+01,8.053673553466796875e+01
1.307999992370605469e+01,8.020977783203125000e+01
1.311999988555908203e+01,7.986928558349609375e+01
1.315999984741210938e+01,7.952803039550781250e+01
1.319999980926513672e+01,7.914406585693359375e+01
1.323999977111816406e+01,7.871774291992187500e+01
1.327999973297119141e+01,7.825379180908203125e+01
1.331999969482421875e+01,7.699512481689453125e+01
1.335999965667724609e+01,7.660011291503906250e+01
1.340000057220458984e+01,7.633754730224609375e+01
1.344000053405761719e+01,7.616931915283203125e+01
1.348000049591064453e+01,7.600057220458984375e+01
1.352000045776367188e+01,7.581448364257812500e+01
1.356000041961669922e+01,7.562803649902343750e+01
1.360000038146972656e+01,7.541841888427734375e+01
1.364000034332275391e+01,7.518579101562500000e+01
1.368000030517578125e+01,7.495253753662109375e+01
1.372000026702880859e+01,7.473484802246093750e+01
1.376000022888183594e+01,7.451662445068359375e+01
1.380000019073486328e+01,7.427916717529296875e+01
1.384000015258789062e+01,7.373027038574218750e+01
1.388000011444091797e+01,7.345790100097656250e+01
1.392000007629394531e+01,7.331761169433593750e+01
1.396000003814697266e+01,7.317752075195312500e+01
1.400000000000000000e+01,7.305171966552734375e+01
1.403999996185302734e+01,7.294023895263671875e+01
1.407999992370605469e+01,7.282838439941406250e+01
1.411999988555908203e+01,7.272992706298828125e+01
1.415999984741210938e+01,7.263107299804687500e+01
1.419999980926513672e+01,7.253071594238281250e+01
1.423999977111816406e+01,7.242880249023437500e+01
1.427999973297119141e+01,7.232653045654296875e+01
1.431999969482421875e+01,7.221729278564453125e+01
1.435999965667724609e+01,7.210776519775390625e+01
1.439999961853027344e+01,7.199044036865234375e+01
1.444000053405761719e+01,7.186317443847656250e+01
1.448000049591064453e+01,7.173575592041015625e+01
1.452000045776367188e+01,7.162307739257812500e+01
1.456000041961669922e+01,7.151007080078125000e+01
1.460000038146972656e+01,7.139562988281250000e+01
1.464000034332275391e+01,7.127970886230468750e+01
1.468000030517578125e+01,7.116351318359375000e+01
1.472000026702880859e+01,7.102015686035156250e+01
1.476000022888183594e+01,7.087660217285156250e+01
1.480000019073486328e+01,7.073172760009765625e+01
1.484000015258789062e+01,7.058551025390625000e+01
1.488000011444091797e+01,7.043891906738281250e+01
1.492000007629394531e+01,7.029216766357421875e+01
1.496000003814697266e+01,7.014525604248046875e+01
1.500000000000000000e+01,6.999841308593750000e+01
1.503999996185302734e+01,6.985168457031250000e+01
1.507999992370605469e+01,6.970478057861328125e+01
1.511999988555908203e+01,6.958419036865234375e+01
1.515999984741210938e+01,6.946334075927734375e+01
1.519999980926513672e+01,6.933967590332031250e+01
1.523999977111816406e+01,6.921314239501953125e+01
1.527999973297119141e+01,6.908634948730468750e+01
1.531999969482421875e+01,6.894324493408203125e+01
1.535999965667724609e+01,6.879991912841796875e+01
1.539999961853027344e+01,6.865657043457031250e+01
1.544000053405761719e+01,6.851318359375000000e+01
1.548000049591064453e+01,6.836960601806640625e+01
1.552000045776367188e+01,6.823948669433593750e+01
1.556000041961669922e+01,6.810906219482421875e+01
1.560000038146972656e+01,6.798212432861328125e+01
1.564000034332275391e+01,6.785864257812500000e+01
1.568000030517578125e+01,6.773490142822265625e+01
1.572000026702880859e+01,6.755627441406250000e+01
1.576000022888183594e+01,6.737705230712890625e+01
1.580000019073486328e+01,6.719355010986328125e+01
1.584000015258789062e+01,6.700572204589843750e+01
1.588000011444091797e+01,6.681663513183593750e+01
1.592000007629394531e+01,6.665187835693359375e+01
1.596000003814697266e+01,6.648699951171875000e+01
1.600000000000000000e+01,6.632048034667968750e+01
1.603999900817871094e+01,6.615233612060546875e+01
1.607999992370605469e+01,6.598406219482421875e+01
1.611999893188476562e+01,6.580680847167968750e+01
1.615999984741210938e+01,6.562944793701171875e+01
1.619999885559082031e+01,6.545204162597656250e+01
1.623999977111816406e+01,6.527450561523437500e+01
1.627999877929687500e+01,6.509693908691406250e+01
1.631999969482421875e+01,6.491137695312500000e+01
1.635999870300292969e+01,6.472577667236328125e+01
1.639999961853027344e+01,6.454017639160156250e+01
1.643999862670898438e+01,6.435459899902343750e+01
1.647999954223632812e+01,6.416894531250000000e+01
1.652000045776367188e+01,6.400131988525390625e+01
1.655999946594238281e+01,6.383359527587890625e+01
1.660000038146972656e+01,6.366573333740234375e+01
1.663999938964843750e+01,6.349775695800781250e+01
1.668000030517578125e+01,6.332963943481445312e+01
1.671999931335449219e+01,6.314110183715820312e+01
1.676000022888183594e+01,6.295257568359375000e+01
1.679999923706054688e+01,6.276401519775390625e+01
1.684000015258789062e+01,6.257545852661132812e+01
1.687999916076660156e+01,6.238692855834960938e+01
1.692000007629394531e+01,6.221437072753906250e+01
1.695999908447265625e+01,6.204172515869140625e+01
1.700000000000000000e+01,6.186916351318359375e+01
1.703999900817871094e+01,6.169660186767578125e+01
1.707999992370605469e+01,6.152397155761718750e+01
1.711999893188476562e+01,6.135381317138671875e+01
1.715999984741210938e+01,6.118357086181640625e+01
1.719999885559082031e+01,6.101330566406250000e+01
1.723999977111816406e+01,6.084299468994140625e+01
1.727999877929687500e+01,6.067972183227539062e+01
1.731999969482421875e+01,6.049974060058593750e+01
1.735999870300292969e+01,6.031984329223632812e+01
1.739999961853027344e+01,6.013994216918945312e+01
1.743999862670898438e+01,5.995984268188476562e+01
1.747999954223632812e+01,5.977911376953125000e+01
