# Start of Energy Bin (keV), Effective Area (cm^2)
1.600000023841857910e+00,2.381977289915084839e-01
1.639999985694885254e+00,3.234312236309051514e-01
1.680000066757202148e+00,4.379096925258636475e-01
1.720000028610229492e+00,5.913421511650085449e-01
1.759999990463256836e+00,7.857576012611389160e-01
1.799999952316284180e+00,9.755542874336242676e-01
1.840000033378601074e+00,5.990604758262634277e-01
1.879999995231628418e+00,7.495247125625610352e-01
1.920000076293945312e+00,9.622296690940856934e-01
1.960000038146972656e+00,1.198302149772644043e+00
2.000000000000000000e+00,1.467339158058166504e+00
2.039999961853027344e+00,1.781896829605102539e+00
2.079999923706054688e+00,2.161586523056030273e+00
2.119999885559082031e+00,1.871416807174682617e+00
2.160000085830688477e+00,2.157981872558593750e+00
2.200000047683715820e+00,2.203161239624023438e+00
2.240000009536743164e+00,2.501974582672119141e+00
2.279999971389770508e+00,2.849851131439208984e+00
2.319999933242797852e+00,3.278711318969726562e+00
2.360000133514404297e+00,3.692775249481201172e+00
2.400000095367431641e+00,4.088464736938476562e+00
2.440000057220458984e+00,4.537200927734375000e+00
2.480000019073486328e+00,5.064742088317871094e+00
2.519999980926513672e+00,5.705956459045410156e+00
2.559999942779541016e+00,6.408129692077636719e+00
2.599999904632568359e+00,7.045794010162353516e+00
2.639999866485595703e+00,7.104377269744873047e+00
2.679999828338623047e+00,7.737290382385253906e+00
2.720000028610229492e+00,8.415552139282226562e+00
2.759999990463256836e+00,9.148172378540039062e+00
2.799999952316284180e+00,9.935230255126953125e+00
2.840000152587890625e+00,1.074837970733642578e+01
2.880000114440917969e+00,1.145520305633544922e+01
2.920000076293945312e+00,1.219793987274169922e+01
2.960000038146972656e+00,1.298460102081298828e+01
3.000000000000000000e+00,1.376991939544677734e+01
3.039999961853027344e+00,1.407283687591552734e+01
3.079999923706054688e+00,1.477370262145996094e+01
3.119999885559082031e+00,1.548167610168457031e+01
3.159999847412109375e+00,1.603795051574707031e+01
3.199999809265136719e+00,1.660247421264648438e+01
3.240000009536743164e+00,1.717569160461425781e+01
3.279999971389770508e+00,1.748785209655761719e+01
3.319999933242797852e+00,1.877053833007812500e+01
3.360000133514404297e+00,2.013207244873046875e+01
3.400000095367431641e+00,2.156601142883300781e+01
3.440000057220458984e+00,2.250308990478515625e+01
3.480000019073486328e+00,2.312537765502929688e+01
3.519999980926513672e+00,2.235486412048339844e+01
3.559999942779541016e+00,2.296275520324707031e+01
3.599999904632568359e+00,2.359184074401855469e+01
3.639999866485595703e+00,2.422827529907226562e+01
3.679999828338623047e+00,2.487296676635742188e+01
3.719999790191650391e+00,2.480883598327636719e+01
3.759999752044677734e+00,2.548106193542480469e+01
3.800000190734863281e+00,2.607118225097656250e+01
3.840000152587890625e+00,2.660407257080078125e+01
3.880000114440917969e+00,2.713765525817871094e+01
3.920000076293945312e+00,2.780249786376953125e+01
3.960000038146972656e+00,2.851959800720214844e+01
4.000000000000000000e+00,2.884925651550292969e+01
4.039999961853027344e+00,2.954962921142578125e+01
4.079999923706054688e+00,3.025775146484375000e+01
4.119999885559082031e+00,3.097376823425292969e+01
4.159999847412109375e+00,3.168972015380859375e+01
4.199999809265136719e+00,3.230664443969726562e+01
4.239999771118164062e+00,3.292638778686523438e+01
4.279999732971191406e+00,3.355062484741210938e+01
4.320000171661376953e+00,3.283762359619140625e+01
4.360000133514404297e+00,3.298012924194335938e+01
4.400000095367431641e+00,3.351845550537109375e+01
4.440000057220458984e+00,3.405943298339843750e+01
4.480000019073486328e+00,3.460597229003906250e+01
4.519999980926513672e+00,3.516333770751953125e+01
4.559999942779541016e+00,3.571981811523437500e+01
4.599999904632568359e+00,3.528343582153320312e+01
4.639999866485595703e+00,3.578931045532226562e+01
4.679999828338623047e+00,3.624842071533203125e+01
4.719999790191650391e+00,3.670680236816406250e+01
4.759999752044677734e+00,3.716516494750976562e+01
4.799999713897705078e+00,3.762326812744140625e+01
4.840000152587890625e+00,3.807879638671875000e+01
4.880000114440917969e+00,3.853318405151367188e+01
4.920000076293945312e+00,3.853105163574218750e+01
4.960000038146972656e+00,3.898588943481445312e+01
5.000000000000000000e+00,3.942995452880859375e+01
5.039999961853027344e+00,3.986488342285156250e+01
5.079999923706054688e+00,4.025084686279296875e+01
5.119999885559082031e+00,4.063277053833007812e+01
5.159999847412109375e+00,4.101227951049804688e+01
5.199999809265136719e+00,4.138869094848632812e+01
5.239999771118164062e+00,4.176239013671875000e+01
5.279999732971191406e+00,4.213475036621093750e+01
5.320000171661376953e+00,4.250438308715820312e+01
5.360000133514404297e+00,4.287264633178710938e+01
5.400000095367431641e+00,4.323853302001953125e+01
5.440000057220458984e+00,4.360159683227539062e+01
5.480000019073486328e+00,4.396295547485351562e+01
5.519999980926513672e+00,4.432416534423828125e+01
5.559999942779541016e+00,4.465456008911132812e+01
5.599999904632568359e+00,4.495231628417968750e+01
5.639999866485595703e+00,4.524756240844726562e+01
5.679999828338623047e+00,4.554074859619140625e+01
5.719999790191650391e+00,4.583209228515625000e+01
5.759999752044677734e+00,4.612142181396484375e+01
5.799999713897705078e+00,4.640460205078125000e+01
5.839999675750732422e+00,4.668191528320312500e+01
5.879999637603759766e+00,4.695724487304687500e+01
5.919999599456787109e+00,4.723062515258789062e+01
5.960000038146972656e+00,4.750197601318359375e+01
6.000000000000000000e+00,4.776863861083984375e+01
6.039999961853027344e+00,4.803045272827148438e+01
6.079999923706054688e+00,4.829039764404296875e+01
6.119999885559082031e+00,4.852761459350585938e+01
6.159999847412109375e+00,4.874810028076171875e+01
6.199999809265136719e+00,4.896805953979492188e+01
6.239999771118164062e+00,4.918762588500976562e+01
6.279999732971191406e+00,4.940533828735351562e+01
6.319999694824218750e+00,4.962073516845703125e+01
6.359999656677246094e+00,4.983427047729492188e+01
6.399999618530273438e+00,5.004418563842773438e+01
6.439999580383300781e+00,5.025051498413085938e+01
6.480000019073486328e+00,5.045508193969726562e+01
6.519999980926513672e+00,5.065740585327148438e+01
6.559999942779541016e+00,5.085805892944335938e+01
6.599999904632568359e+00,5.105492401123046875e+01
6.639999866485595703e+00,5.124801635742187500e+01
6.679999828338623047e+00,5.143951797485351562e+01
6.719999790191650391e+00,5.162751770019531250e+01
6.759999752044677734e+00,5.179288482666015625e+01
6.799999713897705078e+00,5.195251464843750000e+01
6.839999675750732422e+00,5.210651016235351562e+01
6.879999637603759766e+00,5.225895690917968750e+01
6.919999599456787109e+00,5.240161895751953125e+01
6.959999561309814453e+00,5.254272842407226562e+01
7.000000000000000000e+00,5.266901779174804688e+01
7.039999961853027344e+00,5.278036499023437500e+01
7.079999923706054688e+00,5.289051437377929688e+01
7.119999885559082031e+00,5.271380233764648438e+01
7.159999847412109375e+00,5.281370162963867188e+01
7.199999809265136719e+00,5.290871047973632812e+01
7.239999771118164062e+00,5.299893569946289062e+01
7.279999732971191406e+00,5.308770751953125000e+01
7.319999694824218750e+00,5.318838500976562500e+01
7.359999656677246094e+00,5.328762817382812500e+01
7.399999618530273438e+00,5.337825012207031250e+01
7.439999580383300781e+00,5.346022415161132812e+01
7.479999542236328125e+00,5.354086685180664062e+01
7.519999980926513672e+00,5.362187957763671875e+01
7.559999942779541016e+00,5.370157623291015625e+01
7.599999904632568359e+00,5.377330017089843750e+01
7.639999866485595703e+00,5.383692550659179688e+01
7.679999828338623047e+00,5.389930343627929688e+01
7.719999790191650391e+00,5.395357513427734375e+01
7.759999752044677734e+00,5.400670623779296875e+01
7.799999713897705078e+00,5.405282211303710938e+01
7.839999675750732422e+00,5.409172821044921875e+01
7.879999637603759766e+00,5.412941741943359375e+01
7.919999599456787109e+00,5.417284393310546875e+01
7.959999561309814453e+00,5.421505737304687500e+01
7.999999523162841797e+00,5.424468994140625000e+01
8.039999961853027344e+00,5.426174926757812500e+01
8.079999923706054688e+00,5.427767944335937500e+01
8.119999885559082031e+00,5.429770278930664062e+01
8.159999847412109375e+00,5.430273818969726562e+01
8.199999809265136719e+00,5.430085754394531250e+01
8.239999771118164062e+00,5.430786514282226562e+01
8.279999732971191406e+00,5.436108398437500000e+01
8.319999694824218750e+00,5.441312026977539062e+01
8.359999656677246094e+00,5.446415710449218750e+01
8.399999618530273438e+00,5.450931930541992188e+01
8.439999580383300781e+00,5.454872131347656250e+01
8.479999542236328125e+00,5.458710098266601562e+01
8.520000457763671875e+00,5.462122344970703125e+01
8.560000419616699219e+00,5.465434265136718750e+01
8.600000381469726562e+00,5.468154144287109375e+01
8.640000343322753906e+00,5.470274734497070312e+01
8.680000305175781250e+00,5.472297286987304688e+01
8.720000267028808594e+00,5.475588989257812500e+01
8.760000228881835938e+00,5.478785324096679688e+01
8.800000190734863281e+00,5.481354522705078125e+01
8.840000152587890625e+00,5.483295822143554688e+01
8.880000114440917969e+00,5.485139465332031250e+01
8.920000076293945312e+00,5.486224746704101562e+01
8.960000038146972656e+00,5.486454391479492188e+01
9.000000000000000000e+00,5.485505294799804688e+01
9.039999961853027344e+00,5.483801651000976562e+01
9.079999923706054688e+00,5.482001495361328125e+01
9.119999885559082031e+00,5.480977630615234375e+01
9.159999847412109375e+00,5.483302688598632812e+01
9.199999809265136719e+00,5.484769821166992188e+01
9.239999771118164062e+00,5.485373306274414062e+01
9.279999732971191406e+00,5.485872650146484375e+01
9.319999694824218750e+00,5.488055038452148438e+01
9.359999656677246094e+00,5.490132522583007812e+01
9.399999618530273438e+00,5.491034698486328125e+01
9.439999580383300781e+00,5.490755081176757812e+01
9.479999542236328125e+00,5.490365600585937500e+01
9.519999504089355469e+00,5.489404296875000000e+01
9.560000419616699219e+00,5.488340759277343750e+01
9.600000381469726562e+00,5.482975769042968750e+01
9.640000343322753906e+00,5.474505233764648438e+01
9.680000305175781250e+00,5.469541168212890625e+01
9.720000267028808594e+00,5.464680099487304688e+01
9.760000228881835938e+00,5.459702301025390625e+01
9.800000190734863281e+00,5.445099639892578125e+01
9.840000152587890625e+00,5.420693588256835938e+01
9.880000114440917969e+00,5.395653152465820312e+01
9.920000076293945312e+00,5.371568298339843750e+01
9.960000038146972656e+00,5.357492446899414062e+01
1.000000000000000000e+01,5.288477706909179688e+01
1.003999996185302734e+01,5.157320785522460938e+01
1.007999992370605469e+01,5.025997543334960938e+01
1.011999988555908203e+01,4.894936370849609375e+01
1.015999984741210938e+01,4.763754653930664062e+01
1.019999980926513672e+01,4.619899368286132812e+01
1.023999977111816406e+01,4.635543060302734375e+01
1.027999973297119141e+01,4.651017761230468750e+01
1.032000064849853516e+01,4.665987014770507812e+01
1.036000061035156250e+01,4.680791473388671875e+01
1.040000057220458984e+01,4.713761901855468750e+01
1.044000053405761719e+01,4.754072952270507812e+01
1.048000049591064453e+01,4.760707092285156250e+01
1.052000045776367188e+01,4.765718460083007812e+01
1.056000041961669922e+01,4.770522308349609375e+01
1.060000038146972656e+01,4.761532592773437500e+01
1.064000034332275391e+01,4.738885879516601562e+01
1.068000030517578125e+01,4.716192626953125000e+01
1.072000026702880859e+01,4.695653915405273438e+01
1.076000022888183594e+01,4.675050735473632812e+01
1.080000019073486328e+01,4.651737594604492188e+01
1.084000015258789062e+01,4.625437164306640625e+01
1.088000011444091797e+01,4.598973083496093750e+01
1.092000007629394531e+01,4.569524002075195312e+01
1.096000003814697266e+01,4.540105438232421875e+01
1.100000000000000000e+01,4.508288574218750000e+01
1.103999996185302734e+01,4.474107742309570312e+01
1.107999992370605469e+01,4.440013122558593750e+01
1.111999988555908203e+01,4.435622024536132812e+01
1.115999984741210938e+01,4.431185531616210938e+01
1.119999980926513672e+01,4.415683364868164062e+01
1.123999977111816406e+01,4.389120101928710938e+01
1.127999973297119141e+01,4.362512588500976562e+01
1.131999969482421875e+01,4.335799026489257812e+01
1.136000061035156250e+01,4.309048080444335938e+01
1.140000057220458984e+01,4.262550354003906250e+01
1.144000053405761719e+01,4.196234512329101562e+01
1.148000049591064453e+01,4.129774093627929688e+01
1.152000045776367188e+01,4.059625244140625000e+01
1.156000041961669922e+01,3.871967697143554688e+01
1.160000038146972656e+01,3.823309707641601562e+01
1.164000034332275391e+01,3.810088729858398438e+01
1.168000030517578125e+01,3.796749496459960938e+01
1.172000026702880859e+01,3.785043334960937500e+01
1.176000022888183594e+01,3.773144912719726562e+01
1.180000019073486328e+01,3.757871627807617188e+01
1.184000015258789062e+01,3.739311599731445312e+01
1.188000011444091797e+01,3.720740509033203125e+01
1.192000007629394531e+01,3.699801635742187500e+01
1.196000003814697266e+01,3.678763580322265625e+01
1.200000000000000000e+01,3.655081558227539062e+01
1.203999996185302734e+01,3.628774642944335938e+01
1.207999992370605469e+01,3.610549545288085938e+01
1.211999988555908203e+01,3.617573165893554688e+01
1.215999984741210938e+01,3.624586868286132812e+01
1.219999980926513672e+01,3.629808044433593750e+01
1.223999977111816406e+01,3.633228302001953125e+01
1.227999973297119141e+01,3.636631011962890625e+01
1.231999969482421875e+01,3.638594436645507812e+01
1.236000061035156250e+01,3.640542221069335938e+01
1.240000057220458984e+01,3.640039443969726562e+01
1.244000053405761719e+01,3.637096023559570312e+01
1.248000049591064453e+01,3.634131240844726562e+01
1.252000045776367188e+01,3.631799316406250000e+01
1.256000041961669922e+01,3.629451751708984375e+01
1.260000038146972656e+01,3.625792694091796875e+01
1.264000034332275391e+01,3.620825958251953125e+01
1.268000030517578125e+01,3.615844345092773438e+01
1.272000026702880859e+01,3.609875106811523438e+01
1.276000022888183594e+01,3.603891372680664062e+01
1.280000019073486328e+01,3.597116470336914062e+01
1.284000015258789062e+01,3.589550399780273438e+01
1.288000011444091797e+01,3.581986999511718750e+01
1.292000007629394531e+01,3.573838043212890625e+01
1.296000003814697266e+01,3.565680313110351562e+01
1.300000000000000000e+01,3.554250335693359375e+01
1.303999996185302734e+01,3.539556121826171875e+01
1.307999992370605469e+01,3.524871063232421875e+01
1.311999988555908203e+01,3.510832214355468750e+01
1.315999984741210938e+01,3.496752166748046875e+01
1.319999980926513672e+01,3.480775833129882812e+01
1.323999977111816406e+01,3.462919235229492188e+01
1.327999973297119141e+01,3.443101119995117188e+01
1.331999969482421875e+01,3.387277603149414062e+01
1.335999965667724609e+01,3.369879913330078125e+01
1.340000057220458984e+01,3.358504104614257812e+01
1.344000053405761719e+01,3.351333618164062500e+01
1.348000049591064453e+01,3.344139099121093750e+01
1.352000045776367188e+01,3.336905670166015625e+01
1.356000041961669922e+01,3.329651641845703125e+01
1.360000038146972656e+01,3.321381378173828125e+01
1.364000034332275391e+01,3.312101364135742188e+01
1.368000030517578125e+01,3.302788162231445312e+01
1.372000026702880859e+01,3.293555831909179688e+01
1.376000022888183594e+01,3.284297943115234375e+01
1.380000019073486328e+01,3.274174499511718750e+01
1.384000015258789062e+01,3.250304031372070312e+01
1.388000011444091797e+01,3.238594818115234375e+01
1.392000007629394531e+01,3.232799911499023438e+01
1.396000003814697266e+01,3.227010345458984375e+01
1.400000000000000000e+01,3.221855545043945312e+01
1.403999996185302734e+01,3.217337417602539062e+01
1.407999992370605469e+01,3.212800598144531250e+01
1.411999988555908203e+01,3.209007644653320312e+01
1.415999984741210938e+01,3.205195617675781250e+01
1.419999980926513672e+01,3.201312255859375000e+01
1.423999977111816406e+01,3.197355651855468750e+01
1.427999973297119141e+01,3.193381500244140625e+01
1.431999969482421875e+01,3.189929771423339844e+01
1.435999965667724609e+01,3.186460304260253906e+01
1.439999961853027344e+01,3.182630348205566406e+01
1.444000053405761719e+01,3.178344154357910156e+01
1.448000049591064453e+01,3.174045944213867188e+01
1.452000045776367188e+01,3.167913055419921875e+01
1.456000041961669922e+01,3.161769676208496094e+01
1.460000038146972656e+01,3.155553817749023438e+01
1.464000034332275391e+01,3.149263763427734375e+01
1.468000030517578125e+01,3.142965888977050781e+01
1.472000026702880859e+01,3.137714576721191406e+01
1.476000022888183594e+01,3.132449913024902344e+01
1.480000019073486328e+01,3.127110862731933594e+01
1.484000015258789062e+01,3.121695518493652344e+01
1.488000011444091797e+01,3.116259956359863281e+01
1.492000007629394531e+01,3.110473442077636719e+01
1.496000003814697266e+01,3.104676628112792969e+01
1.500000000000000000e+01,3.098869514465332031e+01
1.503999996185302734e+01,3.093053245544433594e+01
1.507999992370605469e+01,3.087226295471191406e+01
1.511999988555908203e+01,3.082152175903320312e+01
1.515999984741210938e+01,3.077064514160156250e+01
1.519999980926513672e+01,3.071841239929199219e+01
1.523999977111816406e+01,3.066480255126953125e+01
1.527999973297119141e+01,3.061105918884277344e+01
1.531999969482421875e+01,3.055418777465820312e+01
1.535999965667724609e+01,3.049719047546386719e+01
1.539999961853027344e+01,3.044004058837890625e+01
1.544000053405761719e+01,3.038274002075195312e+01
1.548000049591064453e+01,3.032533073425292969e+01
1.552000045776367188e+01,3.026956558227539062e+01
1.556000041961669922e+01,3.021364784240722656e+01
1.560000038146972656e+01,3.015918540954589844e+01
1.564000034332275391e+01,3.010615539550781250e+01
1.568000030517578125e+01,3.005299758911132812e+01
1.572000026702880859e+01,2.997627258300781250e+01
1.576000022888183594e+01,2.989918899536132812e+01
1.580000019073486328e+01,2.982011032104492188e+01
1.584000015258789062e+01,2.973901748657226562e+01
1.588000011444091797e+01,2.965735626220703125e+01
1.592000007629394531e+01,2.958294105529785156e+01
1.596000003814697266e+01,2.950848197937011719e+01
1.600000000000000000e+01,2.943311691284179688e+01
1.603999900817871094e+01,2.935684585571289062e+01
1.607999992370605469e+01,2.928052139282226562e+01
1.611999893188476562e+01,2.920414352416992188e+01
1.615999984741210938e+01,2.912770080566406250e+01
1.619999885559082031e+01,2.905121421813964844e+01
1.623999977111816406e+01,2.897465515136718750e+01
1.627999877929687500e+01,2.889806365966796875e+01
1.631999969482421875e+01,2.881971168518066406e+01
1.635999870300292969e+01,2.874131774902343750e+01
1.639999961853027344e+01,2.866288948059082031e+01
1.643999862670898438e+01,2.858444404602050781e+01
1.647999954223632812e+01,2.850593948364257812e+01
1.652000045776367188e+01,2.842433166503906250e+01
1.655999946594238281e+01,2.834271812438964844e+01
1.660000038146972656e+01,2.826108360290527344e+01
1.663999938964843750e+01,2.817944145202636719e+01
1.668000030517578125e+01,2.809776878356933594e+01
1.671999931335449219e+01,2.800980377197265625e+01
1.676000022888183594e+01,2.792185974121093750e+01
1.679999923706054688e+01,2.783392715454101562e+01
1.684000015258789062e+01,2.774602127075195312e+01
1.687999916076660156e+01,2.765815353393554688e+01
1.692000007629394531e+01,2.757537078857421875e+01
1.695999908447265625e+01,2.749258232116699219e+01
1.700000000000000000e+01,2.741017913818359375e+01
1.703999900817871094e+01,2.732810592651367188e+01
1.707999992370605469e+01,2.724603652954101562e+01
1.711999893188476562e+01,2.716352653503417969e+01
1.715999984741210938e+01,2.708102226257324219e+01
1.719999885559082031e+01,2.699854850769042969e+01
1.723999977111816406e+01,2.691609382629394531e+01
1.727999877929687500e+01,2.683666610717773438e+01
1.731999969482421875e+01,2.675090789794921875e+01
1.735999870300292969e+01,2.666522216796875000e+01
1.739999961853027344e+01,2.657956886291503906e+01
1.743999862670898438e+01,2.649386596679687500e+01
1.747999954223632812e+01,2.640792274475097656e+01
