# Start of Energy Bin (keV), Effective Area (cm^2)
1.600000023841857910e+00,1.652042567729949951e-01
1.639999985694885254e+00,2.243357151746749878e-01
1.680000066757202148e+00,3.037632405757904053e-01
1.720000028610229492e+00,4.102277159690856934e-01
1.759999990463256836e+00,5.451443195343017578e-01
1.799999952316284180e+00,6.769393086433410645e-01
1.840000033378601074e+00,4.157735109329223633e-01
1.879999995231628418e+00,5.201640129089355469e-01
1.920000076293945312e+00,6.675386428833007812e-01
1.960000038146972656e+00,8.310129046440124512e-01
2.000000000000000000e+00,1.017192125320434570e+00
2.039999961853027344e+00,1.234734654426574707e+00
2.079999923706054688e+00,1.497212171554565430e+00
2.119999885559082031e+00,1.296364784240722656e+00
2.160000085830688477e+00,1.495133876800537109e+00
2.200000047683715820e+00,1.526718378067016602e+00
2.240000009536743164e+00,1.734126567840576172e+00
2.279999971389770508e+00,1.975596427917480469e+00
2.319999933242797852e+00,2.272725105285644531e+00
2.360000133514404297e+00,2.559554100036621094e+00
2.400000095367431641e+00,2.833626747131347656e+00
2.440000057220458984e+00,3.144449234008789062e+00
2.480000019073486328e+00,3.509846925735473633e+00
2.519999980926513672e+00,3.953387260437011719e+00
2.559999942779541016e+00,4.439032077789306641e+00
2.599999904632568359e+00,4.879917621612548828e+00
2.639999866485595703e+00,4.919650554656982422e+00
2.679999828338623047e+00,5.357055187225341797e+00
2.720000028610229492e+00,5.827843666076660156e+00
2.759999990463256836e+00,6.336472511291503906e+00
2.799999952316284180e+00,6.883028030395507812e+00
2.840000152587890625e+00,7.447851181030273438e+00
2.880000114440917969e+00,7.939188957214355469e+00
2.920000076293945312e+00,8.451983451843261719e+00
2.960000038146972656e+00,8.994966506958007812e+00
3.000000000000000000e+00,9.551841735839843750e+00
3.039999961853027344e+00,9.790863037109375000e+00
3.079999923706054688e+00,1.030937290191650391e+01
3.119999885559082031e+00,1.084158706665039062e+01
3.159999847412109375e+00,1.127134323120117188e+01
3.199999809265136719e+00,1.171041202545166016e+01
3.240000009536743164e+00,1.215925884246826172e+01
3.279999971389770508e+00,1.242639636993408203e+01
3.319999933242797852e+00,1.325668048858642578e+01
3.360000133514404297e+00,1.413441848754882812e+01
3.400000095367431641e+00,1.505610656738281250e+01
3.440000057220458984e+00,1.568772411346435547e+01
3.480000019073486328e+00,1.611999893188476562e+01
3.519999980926513672e+00,1.558613109588623047e+01
3.559999942779541016e+00,1.601329803466796875e+01
3.599999904632568359e+00,1.645545005798339844e+01
3.639999866485595703e+00,1.690293884277343750e+01
3.679999828338623047e+00,1.735639190673828125e+01
3.719999790191650391e+00,1.730998992919921875e+01
3.759999752044677734e+00,1.777734565734863281e+01
3.800000190734863281e+00,1.818736076354980469e+01
3.840000152587890625e+00,1.855741119384765625e+01
3.880000114440917969e+00,1.892789268493652344e+01
3.920000076293945312e+00,1.939230155944824219e+01
3.960000038146972656e+00,1.989260292053222656e+01
4.000000000000000000e+00,2.012268257141113281e+01
4.039999961853027344e+00,2.061135482788085938e+01
4.079999923706054688e+00,2.110544204711914062e+01
4.119999885559082031e+00,2.160499191284179688e+01
4.159999847412109375e+00,2.210450172424316406e+01
4.199999809265136719e+00,2.253495407104492188e+01
4.239999771118164062e+00,2.296739768981933594e+01
4.279999732971191406e+00,2.340298271179199219e+01
4.320000171661376953e+00,2.290862846374511719e+01
4.360000133514404297e+00,2.301049041748046875e+01
4.400000095367431641e+00,2.338838768005371094e+01
4.440000057220458984e+00,2.376822280883789062e+01
4.480000019073486328e+00,2.415201950073242188e+01
4.519999980926513672e+00,2.454085350036621094e+01
4.559999942779541016e+00,2.492906379699707031e+01
4.599999904632568359e+00,2.462436676025390625e+01
4.639999866485595703e+00,2.497728157043457031e+01
4.679999828338623047e+00,2.529755973815917969e+01
4.719999790191650391e+00,2.561711120605468750e+01
4.759999752044677734e+00,2.593663978576660156e+01
4.799999713897705078e+00,2.625599479675292969e+01
4.840000152587890625e+00,2.657356643676757812e+01
4.880000114440917969e+00,2.689033126831054688e+01
4.920000076293945312e+00,2.688441085815429688e+01
4.960000038146972656e+00,2.719728279113769531e+01
5.000000000000000000e+00,2.750255775451660156e+01
5.039999961853027344e+00,2.780945396423339844e+01
5.079999923706054688e+00,2.808755302429199219e+01
5.119999885559082031e+00,2.836671829223632812e+01
5.159999847412109375e+00,2.864444732666015625e+01
5.199999809265136719e+00,2.892028617858886719e+01
5.239999771118164062e+00,2.919451713562011719e+01
5.279999732971191406e+00,2.946805000305175781e+01
5.320000171661376953e+00,2.974057769775390625e+01
5.360000133514404297e+00,3.001240158081054688e+01
5.400000095367431641e+00,3.028285408020019531e+01
5.440000057220458984e+00,3.055162811279296875e+01
5.480000019073486328e+00,3.081946182250976562e+01
5.519999980926513672e+00,3.108742713928222656e+01
5.559999942779541016e+00,3.133402061462402344e+01
5.599999904632568359e+00,3.155798912048339844e+01
5.639999866485595703e+00,3.178046417236328125e+01
5.679999828338623047e+00,3.200170135498046875e+01
5.719999790191650391e+00,3.221995925903320312e+01
5.759999752044677734e+00,3.243698501586914062e+01
5.799999713897705078e+00,3.264995956420898438e+01
5.839999675750732422e+00,3.285907363891601562e+01
5.879999637603759766e+00,3.306695938110351562e+01
5.919999599456787109e+00,3.327548599243164062e+01
5.960000038146972656e+00,3.348278045654296875e+01
6.000000000000000000e+00,3.368204498291015625e+01
6.039999961853027344e+00,3.387308120727539062e+01
6.079999923706054688e+00,3.406286621093750000e+01
6.119999885559082031e+00,3.423488235473632812e+01
6.159999847412109375e+00,3.439514160156250000e+01
6.199999809265136719e+00,3.455521392822265625e+01
6.239999771118164062e+00,3.471519470214843750e+01
6.279999732971191406e+00,3.487392425537109375e+01
6.319999694824218750e+00,3.503069305419921875e+01
6.359999656677246094e+00,3.518619537353515625e+01
6.399999618530273438e+00,3.533942794799804688e+01
6.439999580383300781e+00,3.549042129516601562e+01
6.480000019073486328e+00,3.564021682739257812e+01
6.519999980926513672e+00,3.579070663452148438e+01
6.559999942779541016e+00,3.594008255004882812e+01
6.599999904632568359e+00,3.608725738525390625e+01
6.639999866485595703e+00,3.623224258422851562e+01
6.679999828338623047e+00,3.637617111206054688e+01
6.719999790191650391e+00,3.651097488403320312e+01
6.759999752044677734e+00,3.662979507446289062e+01
6.799999713897705078e+00,3.674539184570312500e+01
6.839999675750732422e+00,3.685784149169921875e+01
6.879999637603759766e+00,3.696922683715820312e+01
6.919999599456787109e+00,3.708112716674804688e+01
6.959999561309814453e+00,3.719199371337890625e+01
7.000000000000000000e+00,3.729306793212890625e+01
7.039999961853027344e+00,3.738426208496093750e+01
7.079999923706054688e+00,3.747466278076171875e+01
7.119999885559082031e+00,3.736979675292968750e+01
7.159999847412109375e+00,3.746101379394531250e+01
7.199999809265136719e+00,3.755180358886718750e+01
7.239999771118164062e+00,3.764227676391601562e+01
7.279999732971191406e+00,3.773183441162109375e+01
7.319999694824218750e+00,3.781430053710937500e+01
7.359999656677246094e+00,3.789580917358398438e+01
7.399999618530273438e+00,3.797337722778320312e+01
7.439999580383300781e+00,3.804701995849609375e+01
7.479999542236328125e+00,3.811978912353515625e+01
7.519999980926513672e+00,3.819164276123046875e+01
7.559999942779541016e+00,3.826262283325195312e+01
7.599999904632568359e+00,3.832782745361328125e+01
7.639999866485595703e+00,3.838716506958007812e+01
7.679999828338623047e+00,3.844567871093750000e+01
7.719999790191650391e+00,3.851053619384765625e+01
7.759999752044677734e+00,3.857468032836914062e+01
7.799999713897705078e+00,3.863143920898437500e+01
7.839999675750732422e+00,3.868067550659179688e+01
7.879999637603759766e+00,3.872909927368164062e+01
7.919999599456787109e+00,3.877299499511718750e+01
7.959999561309814453e+00,3.881608200073242188e+01
7.999999523162841797e+00,3.884826660156250000e+01
8.039999961853027344e+00,3.886954879760742188e+01
8.079999923706054688e+00,3.889005661010742188e+01
8.119999885559082031e+00,3.891409301757812500e+01
8.159999847412109375e+00,3.892741775512695312e+01
8.199999809265136719e+00,3.893418121337890625e+01
8.239999771118164062e+00,3.894244003295898438e+01
8.279999732971191406e+00,3.897407913208007812e+01
8.319999694824218750e+00,3.899999237060546875e+01
8.359999656677246094e+00,3.902520370483398438e+01
8.399999618530273438e+00,3.904465103149414062e+01
8.439999580383300781e+00,3.905841827392578125e+01
8.479999542236328125e+00,3.907145690917968750e+01
8.520000457763671875e+00,3.908974075317382812e+01
8.560000419616699219e+00,3.910730361938476562e+01
8.600000381469726562e+00,3.911848068237304688e+01
8.640000343322753906e+00,3.912319946289062500e+01
8.680000305175781250e+00,3.912720489501953125e+01
8.720000267028808594e+00,3.913937759399414062e+01
8.760000228881835938e+00,3.915085220336914062e+01
8.800000190734863281e+00,3.915657424926757812e+01
8.840000152587890625e+00,3.915653991699218750e+01
8.880000114440917969e+00,3.915577697753906250e+01
8.920000076293945312e+00,3.914803314208984375e+01
8.960000038146972656e+00,3.913416671752929688e+01
9.000000000000000000e+00,3.911281967163085938e+01
9.039999961853027344e+00,3.908703231811523438e+01
9.079999923706054688e+00,3.906055450439453125e+01
9.119999885559082031e+00,3.904422760009765625e+01
9.159999847412109375e+00,3.905061340332031250e+01
9.199999809265136719e+00,3.905225372314453125e+01
9.239999771118164062e+00,3.904912948608398438e+01
9.279999732971191406e+00,3.904526519775390625e+01
9.319999694824218750e+00,3.904472732543945312e+01
9.359999656677246094e+00,3.904344558715820312e+01
9.399999618530273438e+00,3.903488540649414062e+01
9.439999580383300781e+00,3.901903533935546875e+01
9.479999542236328125e+00,3.900242996215820312e+01
9.519999504089355469e+00,3.898382186889648438e+01
9.560000419616699219e+00,3.896451187133789062e+01
9.600000381469726562e+00,3.891564559936523438e+01
9.640000343322753906e+00,3.884574508666992188e+01
9.680000305175781250e+00,3.880078125000000000e+01
9.720000267028808594e+00,3.876177978515625000e+01
9.760000228881835938e+00,3.872198486328125000e+01
9.800000190734863281e+00,3.861567687988281250e+01
9.840000152587890625e+00,3.844161987304687500e+01
9.880000114440917969e+00,3.826314544677734375e+01
9.920000076293945312e+00,3.808636093139648438e+01
9.960000038146972656e+00,3.798118591308593750e+01
1.000000000000000000e+01,3.749082565307617188e+01
1.003999996185302734e+01,3.656382369995117188e+01
1.007999992370605469e+01,3.563573455810546875e+01
1.011999988555908203e+01,3.470641326904296875e+01
1.015999984741210938e+01,3.377647018432617188e+01
1.019999980926513672e+01,3.275564575195312500e+01
1.023999977111816406e+01,3.285595703125000000e+01
1.027999973297119141e+01,3.295505142211914062e+01
1.032000064849853516e+01,3.305307006835937500e+01
1.036000061035156250e+01,3.314992141723632812e+01
1.040000057220458984e+01,3.337537002563476562e+01
1.044000053405761719e+01,3.365921783447265625e+01
1.048000049591064453e+01,3.372435379028320312e+01
1.052000045776367188e+01,3.378575515747070312e+01
1.056000041961669922e+01,3.384594726562500000e+01
1.060000038146972656e+01,3.380982589721679688e+01
1.064000034332275391e+01,3.367810821533203125e+01
1.068000030517578125e+01,3.354602432250976562e+01
1.072000026702880859e+01,3.341464614868164062e+01
1.076000022888183594e+01,3.328292846679687500e+01
1.080000019073486328e+01,3.313203430175781250e+01
1.084000015258789062e+01,3.295996093750000000e+01
1.088000011444091797e+01,3.278679656982421875e+01
1.092000007629394531e+01,3.260783386230468750e+01
1.096000003814697266e+01,3.242895126342773438e+01
1.100000000000000000e+01,3.223241424560546875e+01
1.103999996185302734e+01,3.201842117309570312e+01
1.107999992370605469e+01,3.180484962463378906e+01
1.111999988555908203e+01,3.177477645874023438e+01
1.115999984741210938e+01,3.174437522888183594e+01
1.119999980926513672e+01,3.163388252258300781e+01
1.123999977111816406e+01,3.144334411621093750e+01
1.127999973297119141e+01,3.125248336791992188e+01
1.131999969482421875e+01,3.106267738342285156e+01
1.136000061035156250e+01,3.087257766723632812e+01
1.140000057220458984e+01,3.053898048400878906e+01
1.144000053405761719e+01,3.006143951416015625e+01
1.148000049591064453e+01,2.958292388916015625e+01
1.152000045776367188e+01,2.908696746826171875e+01
1.156000041961669922e+01,2.774779129028320312e+01
1.160000038146972656e+01,2.740585327148437500e+01
1.164000034332275391e+01,2.731906890869140625e+01
1.168000030517578125e+01,2.723137283325195312e+01
1.172000026702880859e+01,2.714117431640625000e+01
1.176000022888183594e+01,2.704964256286621094e+01
1.180000019073486328e+01,2.693241691589355469e+01
1.184000015258789062e+01,2.679017829895019531e+01
1.188000011444091797e+01,2.664796447753906250e+01
1.192000007629394531e+01,2.649835205078125000e+01
1.196000003814697266e+01,2.634802436828613281e+01
1.200000000000000000e+01,2.617843437194824219e+01
1.203999996185302734e+01,2.598972320556640625e+01
1.207999992370605469e+01,2.585887336730957031e+01
1.211999988555908203e+01,2.590468406677246094e+01
1.215999984741210938e+01,2.595039176940917969e+01
1.219999980926513672e+01,2.598323059082031250e+01
1.223999977111816406e+01,2.600312995910644531e+01
1.227999973297119141e+01,2.602290153503417969e+01
1.231999969482421875e+01,2.603400230407714844e+01
1.236000061035156250e+01,2.604499435424804688e+01
1.240000057220458984e+01,2.603835487365722656e+01
1.244000053405761719e+01,2.601416969299316406e+01
1.248000049591064453e+01,2.598983573913574219e+01
1.252000045776367188e+01,2.596818161010742188e+01
1.256000041961669922e+01,2.594643020629882812e+01
1.260000038146972656e+01,2.591526031494140625e+01
1.264000034332275391e+01,2.587471580505371094e+01
1.268000030517578125e+01,2.583407783508300781e+01
1.272000026702880859e+01,2.578933906555175781e+01
1.276000022888183594e+01,2.574449920654296875e+01
1.280000019073486328e+01,2.569396591186523438e+01
1.284000015258789062e+01,2.563774299621582031e+01
1.288000011444091797e+01,2.558154678344726562e+01
1.292000007629394531e+01,2.552893447875976562e+01
1.296000003814697266e+01,2.547623825073242188e+01
1.300000000000000000e+01,2.539954376220703125e+01
1.303999996185302734e+01,2.529889869689941406e+01
1.307999992370605469e+01,2.519828605651855469e+01
1.311999988555908203e+01,2.508735466003417969e+01
1.315999984741210938e+01,2.497622108459472656e+01
1.319999980926513672e+01,2.485163879394531250e+01
1.323999977111816406e+01,2.471373367309570312e+01
1.327999973297119141e+01,2.456519889831542969e+01
1.331999969482421875e+01,2.416950416564941406e+01
1.335999965667724609e+01,2.404427909851074219e+01
1.340000057220458984e+01,2.396036529541015625e+01
1.344000053405761719e+01,2.390601348876953125e+01
1.348000049591064453e+01,2.385150337219238281e+01
1.352000045776367188e+01,2.379269981384277344e+01
1.356000041961669922e+01,2.373377990722656250e+01
1.360000038146972656e+01,2.366744041442871094e+01
1.364000034332275391e+01,2.359373855590820312e+01
1.368000030517578125e+01,2.351984214782714844e+01
1.372000026702880859e+01,2.344878387451171875e+01
1.376000022888183594e+01,2.337757301330566406e+01
1.380000019073486328e+01,2.330033493041992188e+01
1.384000015258789062e+01,2.312542152404785156e+01
1.388000011444091797e+01,2.303756332397460938e+01
1.392000007629394531e+01,2.299188423156738281e+01
1.396000003814697266e+01,2.294626617431640625e+01
1.400000000000000000e+01,2.290510940551757812e+01
1.403999996185302734e+01,2.286841392517089844e+01
1.407999992370605469e+01,2.283160781860351562e+01
1.411999988555908203e+01,2.279919815063476562e+01
1.415999984741210938e+01,2.276667022705078125e+01
1.419999980926513672e+01,2.273362159729003906e+01
1.423999977111816406e+01,2.270004081726074219e+01
1.427999973297119141e+01,2.266634750366210938e+01
1.431999969482421875e+01,2.263038444519042969e+01
1.435999965667724609e+01,2.259433555603027344e+01
1.439999961853027344e+01,2.255582237243652344e+01
1.444000053405761719e+01,2.251416969299316406e+01
1.448000049591064453e+01,2.247247695922851562e+01
1.452000045776367188e+01,2.243398857116699219e+01
1.456000041961669922e+01,2.239541625976562500e+01
1.460000038146972656e+01,2.235642433166503906e+01
1.464000034332275391e+01,2.231700325012207031e+01
1.468000030517578125e+01,2.227750778198242188e+01
1.472000026702880859e+01,2.223090171813964844e+01
1.476000022888183594e+01,2.218424224853515625e+01
1.480000019073486328e+01,2.213726043701171875e+01
1.484000015258789062e+01,2.208994674682617188e+01
1.488000011444091797e+01,2.204252815246582031e+01
1.492000007629394531e+01,2.199819183349609375e+01
1.496000003814697266e+01,2.195380020141601562e+01
1.500000000000000000e+01,2.190952110290527344e+01
1.503999996185302734e+01,2.186536216735839844e+01
1.507999992370605469e+01,2.182114219665527344e+01
1.511999988555908203e+01,2.178201866149902344e+01
1.515999984741210938e+01,2.174281692504882812e+01
1.519999980926513672e+01,2.170281982421875000e+01
1.523999977111816406e+01,2.166201972961425781e+01
1.527999973297119141e+01,2.162113952636718750e+01
1.531999969482421875e+01,2.157674789428710938e+01
1.535999965667724609e+01,2.153228950500488281e+01
1.539999961853027344e+01,2.148786354064941406e+01
1.544000053405761719e+01,2.144346046447753906e+01
1.548000049591064453e+01,2.139900207519531250e+01
1.552000045776367188e+01,2.135672187805175781e+01
1.556000041961669922e+01,2.131435585021972656e+01
1.560000038146972656e+01,2.127313804626464844e+01
1.564000034332275391e+01,2.123305702209472656e+01
1.568000030517578125e+01,2.119289779663085938e+01
1.572000026702880859e+01,2.113508605957031250e+01
1.576000022888183594e+01,2.107710838317871094e+01
1.580000019073486328e+01,2.101790428161621094e+01
1.584000015258789062e+01,2.095745658874511719e+01
1.588000011444091797e+01,2.089662551879882812e+01
1.592000007629394531e+01,2.084563446044921875e+01
1.596000003814697266e+01,2.079460334777832031e+01
1.600000000000000000e+01,2.074326324462890625e+01
1.603999900817871094e+01,2.069161033630371094e+01
1.607999992370605469e+01,2.063991165161132812e+01
1.611999893188476562e+01,2.058295822143554688e+01
1.615999984741210938e+01,2.052597999572753906e+01
1.619999885559082031e+01,2.046899986267089844e+01
1.623999977111816406e+01,2.041198921203613281e+01
1.627999877929687500e+01,2.035498046875000000e+01
1.631999969482421875e+01,2.029653739929199219e+01
1.635999870300292969e+01,2.023808670043945312e+01
1.639999961853027344e+01,2.017963981628417969e+01
1.643999862670898438e+01,2.012120056152343750e+01
1.647999954223632812e+01,2.006274604797363281e+01
1.652000045776367188e+01,2.001028823852539062e+01
1.655999946594238281e+01,1.995779991149902344e+01
1.660000038146972656e+01,1.990527534484863281e+01
1.663999938964843750e+01,1.985271263122558594e+01
1.668000030517578125e+01,1.980010795593261719e+01
1.671999931335449219e+01,1.974590682983398438e+01
1.676000022888183594e+01,1.969167900085449219e+01
1.679999923706054688e+01,1.963741111755371094e+01
1.684000015258789062e+01,1.958312034606933594e+01
1.687999916076660156e+01,1.952880859375000000e+01
1.692000007629394531e+01,1.947495841979980469e+01
1.695999908447265625e+01,1.942108726501464844e+01
1.700000000000000000e+01,1.936705780029296875e+01
1.703999900817871094e+01,1.931284332275390625e+01
1.707999992370605469e+01,1.925860786437988281e+01
1.711999893188476562e+01,1.920715141296386719e+01
1.715999984741210938e+01,1.915566062927246094e+01
1.719999885559082031e+01,1.910414886474609375e+01
1.723999977111816406e+01,1.905261802673339844e+01
1.727999877929687500e+01,1.900329971313476562e+01
1.731999969482421875e+01,1.894914054870605469e+01
1.735999870300292969e+01,1.889500045776367188e+01
1.739999961853027344e+01,1.884084320068359375e+01
1.743999862670898438e+01,1.878660964965820312e+01
1.747999954223632812e+01,1.873216819763183594e+01
