# Start of Energy Bin (keV), Effective Area (cm^2)
1.600000023841857910e+00,7.607797384262084961e-01
1.639999985694885254e+00,1.058132767677307129e+00
1.680000066757202148e+00,1.466212511062622070e+00
1.720000028610229492e+00,2.024570465087890625e+00
1.759999990463256836e+00,2.745799541473388672e+00
1.799999952316284180e+00,3.468298435211181641e+00
1.840000033378601074e+00,1.927929401397705078e+00
1.879999995231628418e+00,2.461624383926391602e+00
1.920000076293945312e+00,3.210658788681030273e+00
1.960000038146972656e+00,4.047223091125488281e+00
2.000000000000000000e+00,5.007121086120605469e+00
2.039999961853027344e+00,6.137538909912109375e+00
2.079999923706054688e+00,7.512260913848876953e+00
2.119999885559082031e+00,6.841757774353027344e+00
2.160000085830688477e+00,7.950310707092285156e+00
2.200000047683715820e+00,8.298853874206542969e+00
2.240000009536743164e+00,9.509548187255859375e+00
2.279999971389770508e+00,1.092670059204101562e+01
2.319999933242797852e+00,1.266748332977294922e+01
2.360000133514404297e+00,1.435909366607666016e+01
2.400000095367431641e+00,1.598263072967529297e+01
2.440000057220458984e+00,1.782176589965820312e+01
2.480000019073486328e+00,1.997117614746093750e+01
2.519999980926513672e+00,2.255905914306640625e+01
2.559999942779541016e+00,2.540422248840332031e+01
2.599999904632568359e+00,2.798537445068359375e+01
2.639999866485595703e+00,2.852975845336914062e+01
2.679999828338623047e+00,3.111851882934570312e+01
2.720000028610229492e+00,3.390954208374023438e+01
2.759999990463256836e+00,3.692944717407226562e+01
2.799999952316284180e+00,4.018315505981445312e+01
2.840000152587890625e+00,4.354585266113281250e+01
2.880000114440917969e+00,4.644650268554687500e+01
2.920000076293945312e+00,4.948279571533203125e+01
2.960000038146972656e+00,5.269963836669921875e+01
3.000000000000000000e+00,5.622088623046875000e+01
3.039999961853027344e+00,5.835683441162109375e+01
3.079999923706054688e+00,6.201372528076171875e+01
3.119999885559082031e+00,6.581602478027343750e+01
3.159999847412109375e+00,6.901267242431640625e+01
3.199999809265136719e+00,7.232173919677734375e+01
3.240000009536743164e+00,7.574856567382812500e+01
3.279999971389770508e+00,7.824352264404296875e+01
3.319999933242797852e+00,8.232065582275390625e+01
3.360000133514404297e+00,8.657826995849609375e+01
3.400000095367431641e+00,9.101101684570312500e+01
3.440000057220458984e+00,9.458644104003906250e+01
3.480000019073486328e+00,9.725275421142578125e+01
3.519999980926513672e+00,9.377493286132812500e+01
3.559999942779541016e+00,9.642844390869140625e+01
3.599999904632568359e+00,9.918384552001953125e+01
3.639999866485595703e+00,1.019801712036132812e+02
3.679999828338623047e+00,1.048212890625000000e+02
3.719999790191650391e+00,1.044599151611328125e+02
3.759999752044677734e+00,1.073847961425781250e+02
3.800000190734863281e+00,1.099514694213867188e+02
3.840000152587890625e+00,1.122705993652343750e+02
3.880000114440917969e+00,1.145985870361328125e+02
3.920000076293945312e+00,1.174750823974609375e+02
3.960000038146972656e+00,1.205639724731445312e+02
4.000000000000000000e+00,1.219257202148437500e+02
4.039999961853027344e+00,1.249520416259765625e+02
4.079999923706054688e+00,1.280155944824218750e+02
4.119999885559082031e+00,1.311139526367187500e+02
4.159999847412109375e+00,1.342148742675781250e+02
4.199999809265136719e+00,1.368771057128906250e+02
4.239999771118164062e+00,1.395552062988281250e+02
4.279999732971191406e+00,1.422561950683593750e+02
4.320000171661376953e+00,1.389923706054687500e+02
4.360000133514404297e+00,1.395692291259765625e+02
4.400000095367431641e+00,1.419224548339843750e+02
4.440000057220458984e+00,1.442914428710937500e+02
4.480000019073486328e+00,1.466891174316406250e+02
4.519999980926513672e+00,1.491076965332031250e+02
4.559999942779541016e+00,1.515248107910156250e+02
4.599999904632568359e+00,1.494924621582031250e+02
4.639999866485595703e+00,1.516920928955078125e+02
4.679999828338623047e+00,1.536838684082031250e+02
4.719999790191650391e+00,1.556710052490234375e+02
4.759999752044677734e+00,1.576600341796875000e+02
4.799999713897705078e+00,1.596511077880859375e+02
4.840000152587890625e+00,1.616339263916015625e+02
4.880000114440917969e+00,1.636140289306640625e+02
4.920000076293945312e+00,1.635254516601562500e+02
4.960000038146972656e+00,1.654914245605468750e+02
5.000000000000000000e+00,1.674137878417968750e+02
5.039999961853027344e+00,1.694307403564453125e+02
5.079999923706054688e+00,1.713174896240234375e+02
5.119999885559082031e+00,1.732362060546875000e+02
5.159999847412109375e+00,1.751512451171875000e+02
5.199999809265136719e+00,1.770601501464843750e+02
5.239999771118164062e+00,1.789647521972656250e+02
5.279999732971191406e+00,1.808701934814453125e+02
5.320000171661376953e+00,1.827606811523437500e+02
5.360000133514404297e+00,1.846516418457031250e+02
5.400000095367431641e+00,1.865393981933593750e+02
5.440000057220458984e+00,1.884219818115234375e+02
5.480000019073486328e+00,1.903033294677734375e+02
5.519999980926513672e+00,1.921741943359375000e+02
5.559999942779541016e+00,1.939110107421875000e+02
5.599999904632568359e+00,1.955061340332031250e+02
5.639999866485595703e+00,1.970956420898437500e+02
5.679999828338623047e+00,1.986809844970703125e+02
5.719999790191650391e+00,2.002730102539062500e+02
5.759999752044677734e+00,2.018612213134765625e+02
5.799999713897705078e+00,2.034291839599609375e+02
5.839999675750732422e+00,2.049779663085937500e+02
5.879999637603759766e+00,2.065226440429687500e+02
5.919999599456787109e+00,2.080531005859375000e+02
5.960000038146972656e+00,2.095791473388671875e+02
6.000000000000000000e+00,2.109854125976562500e+02
6.039999961853027344e+00,2.122692108154296875e+02
6.079999923706054688e+00,2.135466308593750000e+02
6.119999885559082031e+00,2.147254638671875000e+02
6.159999847412109375e+00,2.158282318115234375e+02
6.199999809265136719e+00,2.169320373535156250e+02
6.239999771118164062e+00,2.180376281738281250e+02
6.279999732971191406e+00,2.191367034912109375e+02
6.319999694824218750e+00,2.202241058349609375e+02
6.359999656677246094e+00,2.213049011230468750e+02
6.399999618530273438e+00,2.223745117187500000e+02
6.439999580383300781e+00,2.234331512451171875e+02
6.480000019073486328e+00,2.244856567382812500e+02
6.519999980926513672e+00,2.255267028808593750e+02
6.559999942779541016e+00,2.265618743896484375e+02
6.599999904632568359e+00,2.275867309570312500e+02
6.639999866485595703e+00,2.286013793945312500e+02
6.679999828338623047e+00,2.296104583740234375e+02
6.719999790191650391e+00,2.305781860351562500e+02
6.759999752044677734e+00,2.314412994384765625e+02
6.799999713897705078e+00,2.322891845703125000e+02
6.839999675750732422e+00,2.331222229003906250e+02
6.879999637603759766e+00,2.339495239257812500e+02
6.919999599456787109e+00,2.347655792236328125e+02
6.959999561309814453e+00,2.355760650634765625e+02
7.000000000000000000e+00,2.363292236328125000e+02
7.039999961853027344e+00,2.370245666503906250e+02
7.079999923706054688e+00,2.377156066894531250e+02
7.119999885559082031e+00,2.371398315429687500e+02
7.159999847412109375e+00,2.378085784912109375e+02
7.199999809265136719e+00,2.384840698242187500e+02
7.239999771118164062e+00,2.391672058105468750e+02
7.279999732971191406e+00,2.398452453613281250e+02
7.319999694824218750e+00,2.405120239257812500e+02
7.359999656677246094e+00,2.411736907958984375e+02
7.399999618530273438e+00,2.418212738037109375e+02
7.439999580383300781e+00,2.424548034667968750e+02
7.479999542236328125e+00,2.430837707519531250e+02
7.519999980926513672e+00,2.437200164794921875e+02
7.559999942779541016e+00,2.443517303466796875e+02
7.599999904632568359e+00,2.449712524414062500e+02
7.639999866485595703e+00,2.455783386230468750e+02
7.679999828338623047e+00,2.461813049316406250e+02
7.719999790191650391e+00,2.467677612304687500e+02
7.759999752044677734e+00,2.473505096435546875e+02
7.799999713897705078e+00,2.479217529296875000e+02
7.839999675750732422e+00,2.484808654785156250e+02
7.879999637603759766e+00,2.490360565185546875e+02
7.919999599456787109e+00,2.496104125976562500e+02
7.959999561309814453e+00,2.501809234619140625e+02
7.999999523162841797e+00,2.507194824218750000e+02
8.039999961853027344e+00,2.512261352539062500e+02
8.079999923706054688e+00,2.517292785644531250e+02
8.119999885559082031e+00,2.522118835449218750e+02
8.159999847412109375e+00,2.526229095458984375e+02
8.199999809265136719e+00,2.530145416259765625e+02
8.239999771118164062e+00,2.534095153808593750e+02
8.279999732971191406e+00,2.538682098388671875e+02
8.319999694824218750e+00,2.543271484375000000e+02
8.359999656677246094e+00,2.547829284667968750e+02
8.399999618530273438e+00,2.552117309570312500e+02
8.439999580383300781e+00,2.556141510009765625e+02
8.479999542236328125e+00,2.560132751464843750e+02
8.520000457763671875e+00,2.564071655273437500e+02
8.560000419616699219e+00,2.567978515625000000e+02
8.600000381469726562e+00,2.571478881835937500e+02
8.640000343322753906e+00,2.574569396972656250e+02
8.680000305175781250e+00,2.577627563476562500e+02
8.720000267028808594e+00,2.580765686035156250e+02
8.760000228881835938e+00,2.583872680664062500e+02
8.800000190734863281e+00,2.586458740234375000e+02
8.840000152587890625e+00,2.588522338867187500e+02
8.880000114440917969e+00,2.590551757812500000e+02
8.920000076293945312e+00,2.592448425292968750e+02
8.960000038146972656e+00,2.593935546875000000e+02
9.000000000000000000e+00,2.594641723632812500e+02
9.039999961853027344e+00,2.594775390625000000e+02
9.079999923706054688e+00,2.594874267578125000e+02
9.119999885559082031e+00,2.595312805175781250e+02
9.159999847412109375e+00,2.596545410156250000e+02
9.199999809265136719e+00,2.597203674316406250e+02
9.239999771118164062e+00,2.597285156250000000e+02
9.279999732971191406e+00,2.597330932617187500e+02
9.319999694824218750e+00,2.597524108886718750e+02
9.359999656677246094e+00,2.597681274414062500e+02
9.399999618530273438e+00,2.597212219238281250e+02
9.439999580383300781e+00,2.596115112304687500e+02
9.479999542236328125e+00,2.594981994628906250e+02
9.519999504089355469e+00,2.593621826171875000e+02
9.560000419616699219e+00,2.592228393554687500e+02
9.600000381469726562e+00,2.588807983398437500e+02
9.640000343322753906e+00,2.583962707519531250e+02
9.680000305175781250e+00,2.580891113281250000e+02
9.720000267028808594e+00,2.577743225097656250e+02
9.760000228881835938e+00,2.574560241699218750e+02
9.800000190734863281e+00,2.567693176269531250e+02
9.840000152587890625e+00,2.557065429687500000e+02
9.880000114440917969e+00,2.546158752441406250e+02
9.920000076293945312e+00,2.535682830810546875e+02
9.960000038146972656e+00,2.528755187988281250e+02
1.000000000000000000e+01,2.497518768310546875e+02
1.003999996185302734e+01,2.439360504150390625e+02
1.007999992370605469e+01,2.381068267822265625e+02
1.011999988555908203e+01,2.322298278808593750e+02
1.015999984741210938e+01,2.263426666259765625e+02
1.019999980926513672e+01,2.198717041015625000e+02
1.023999977111816406e+01,2.200557556152343750e+02
1.027999973297119141e+01,2.202321472167968750e+02
1.032000064849853516e+01,2.204236297607421875e+02
1.036000061035156250e+01,2.206079559326171875e+02
1.040000057220458984e+01,2.216020355224609375e+02
1.044000053405761719e+01,2.230906677246093750e+02
1.048000049591064453e+01,2.235978698730468750e+02
1.052000045776367188e+01,2.240907592773437500e+02
1.056000041961669922e+01,2.245792541503906250e+02
1.060000038146972656e+01,2.245430755615234375e+02
1.064000034332275391e+01,2.239850158691406250e+02
1.068000030517578125e+01,2.234253387451171875e+02
1.072000026702880859e+01,2.228706359863281250e+02
1.076000022888183594e+01,2.223145751953125000e+02
1.080000019073486328e+01,2.216576690673828125e+02
1.084000015258789062e+01,2.208850555419921875e+02
1.088000011444091797e+01,2.201045379638671875e+02
1.092000007629394531e+01,2.192948303222656250e+02
1.096000003814697266e+01,2.184851837158203125e+02
1.100000000000000000e+01,2.175814819335937500e+02
1.103999996185302734e+01,2.165840454101562500e+02
1.107999992370605469e+01,2.155877075195312500e+02
1.111999988555908203e+01,2.154396820068359375e+02
1.115999984741210938e+01,2.152896118164062500e+02
1.119999980926513672e+01,2.146911468505859375e+02
1.123999977111816406e+01,2.136430053710937500e+02
1.127999973297119141e+01,2.125909423828125000e+02
1.131999969482421875e+01,2.115410461425781250e+02
1.136000061035156250e+01,2.104873962402343750e+02
1.140000057220458984e+01,2.083789825439453125e+02
1.144000053405761719e+01,2.052118988037109375e+02
1.148000049591064453e+01,2.020353088378906250e+02
1.152000045776367188e+01,1.986870117187500000e+02
1.156000041961669922e+01,1.899541168212890625e+02
1.160000038146972656e+01,1.874585113525390625e+02
1.164000034332275391e+01,1.867472534179687500e+02
1.168000030517578125e+01,1.860306396484375000e+02
1.172000026702880859e+01,1.852805175781250000e+02
1.176000022888183594e+01,1.845227966308593750e+02
1.180000019073486328e+01,1.837096405029296875e+02
1.184000015258789062e+01,1.828444366455078125e+02
1.188000011444091797e+01,1.819787292480468750e+02
1.192000007629394531e+01,1.811119384765625000e+02
1.196000003814697266e+01,1.802387390136718750e+02
1.200000000000000000e+01,1.792327575683593750e+02
1.203999996185302734e+01,1.780947265625000000e+02
1.207999992370605469e+01,1.772903900146484375e+02
1.211999988555908203e+01,1.774654388427734375e+02
1.215999984741210938e+01,1.776395263671875000e+02
1.219999980926513672e+01,1.777533111572265625e+02
1.223999977111816406e+01,1.778065185546875000e+02
1.227999973297119141e+01,1.778588256835937500e+02
1.231999969482421875e+01,1.778996276855468750e+02
1.236000061035156250e+01,1.779396514892578125e+02
1.240000057220458984e+01,1.778803100585937500e+02
1.244000053405761719e+01,1.777220916748046875e+02
1.248000049591064453e+01,1.775629272460937500e+02
1.252000045776367188e+01,1.774023895263671875e+02
1.256000041961669922e+01,1.772412567138671875e+02
1.260000038146972656e+01,1.770194854736328125e+02
1.264000034332275391e+01,1.767373657226562500e+02
1.268000030517578125e+01,1.764546813964843750e+02
1.272000026702880859e+01,1.761657104492187500e+02
1.276000022888183594e+01,1.758760223388671875e+02
1.280000019073486328e+01,1.755450134277343750e+02
1.284000015258789062e+01,1.751726837158203125e+02
1.288000011444091797e+01,1.748005065917968750e+02
1.292000007629394531e+01,1.744281311035156250e+02
1.296000003814697266e+01,1.740553436279296875e+02
1.300000000000000000e+01,1.734956970214843750e+02
1.303999996185302734e+01,1.727497863769531250e+02
1.307999992370605469e+01,1.720046997070312500e+02
1.311999988555908203e+01,1.712489166259765625e+02
1.315999984741210938e+01,1.704916992187500000e+02
1.319999980926513672e+01,1.696269836425781250e+02
1.323999977111816406e+01,1.686559448242187500e+02
1.327999973297119141e+01,1.675620117187500000e+02
1.331999969482421875e+01,1.649547424316406250e+02
1.335999965667724609e+01,1.639352416992187500e+02
1.340000057220458984e+01,1.632149963378906250e+02
1.344000053405761719e+01,1.627326660156250000e+02
1.348000049591064453e+01,1.622500305175781250e+02
1.352000045776367188e+01,1.617665557861328125e+02
1.356000041961669922e+01,1.612829742431640625e+02
1.360000038146972656e+01,1.607437896728515625e+02
1.364000034332275391e+01,1.601495666503906250e+02
1.368000030517578125e+01,1.595549011230468750e+02
1.372000026702880859e+01,1.589673919677734375e+02
1.376000022888183594e+01,1.583798217773437500e+02
1.380000019073486328e+01,1.577441253662109375e+02
1.384000015258789062e+01,1.565178375244140625e+02
1.388000011444091797e+01,1.558614196777343750e+02
1.392000007629394531e+01,1.554835968017578125e+02
1.396000003814697266e+01,1.551065673828125000e+02
1.400000000000000000e+01,1.547650451660156250e+02
1.403999996185302734e+01,1.544590301513671875e+02
1.407999992370605469e+01,1.541526336669921875e+02
1.411999988555908203e+01,1.538433837890625000e+02
1.415999984741210938e+01,1.535338134765625000e+02
1.419999980926513672e+01,1.532210388183593750e+02
1.423999977111816406e+01,1.529050292968750000e+02
1.427999973297119141e+01,1.525887451171875000e+02
1.431999969482421875e+01,1.522796630859375000e+02
1.435999965667724609e+01,1.519703521728515625e+02
1.439999961853027344e+01,1.516438598632812500e+02
1.444000053405761719e+01,1.512955474853515625e+02
1.448000049591064453e+01,1.509473266601562500e+02
1.452000045776367188e+01,1.505915985107421875e+02
1.456000041961669922e+01,1.502357025146484375e+02
1.460000038146972656e+01,1.498758544921875000e+02
1.464000034332275391e+01,1.495118865966796875e+02
1.468000030517578125e+01,1.491479187011718750e+02
1.472000026702880859e+01,1.488032379150390625e+02
1.476000022888183594e+01,1.484584197998046875e+02
1.480000019073486328e+01,1.481110534667968750e+02
1.484000015258789062e+01,1.477610168457031250e+02
1.488000011444091797e+01,1.474105529785156250e+02
1.492000007629394531e+01,1.470466613769531250e+02
1.496000003814697266e+01,1.466826629638671875e+02
1.500000000000000000e+01,1.463178863525390625e+02
1.503999996185302734e+01,1.459522399902343750e+02
1.507999992370605469e+01,1.455864868164062500e+02
1.511999988555908203e+01,1.452169952392578125e+02
1.515999984741210938e+01,1.448475036621093750e+02
1.519999980926513672e+01,1.444737548828125000e+02
1.523999977111816406e+01,1.440957336425781250e+02
1.527999973297119141e+01,1.437176361083984375e+02
1.531999969482421875e+01,1.433389892578125000e+02
1.535999965667724609e+01,1.429602813720703125e+02
1.539999961853027344e+01,1.425819091796875000e+02
1.544000053405761719e+01,1.422039031982421875e+02
1.548000049591064453e+01,1.418258666992187500e+02
1.552000045776367188e+01,1.414476013183593750e+02
1.556000041961669922e+01,1.410691986083984375e+02
1.560000038146972656e+01,1.406989746093750000e+02
1.564000034332275391e+01,1.403368835449218750e+02
1.568000030517578125e+01,1.399746551513671875e+02
1.572000026702880859e+01,1.396559295654296875e+02
1.576000022888183594e+01,1.393374023437500000e+02
1.580000019073486328e+01,1.390111846923828125e+02
1.584000015258789062e+01,1.386772460937500000e+02
1.588000011444091797e+01,1.383401794433593750e+02
1.592000007629394531e+01,1.379992065429687500e+02
1.596000003814697266e+01,1.376578674316406250e+02
1.600000000000000000e+01,1.373171386718750000e+02
1.603999900817871094e+01,1.369770050048828125e+02
1.607999992370605469e+01,1.366365051269531250e+02
1.611999893188476562e+01,1.362994079589843750e+02
1.615999984741210938e+01,1.359618988037109375e+02
1.619999885559082031e+01,1.356240844726562500e+02
1.623999977111816406e+01,1.352858734130859375e+02
1.627999877929687500e+01,1.349473876953125000e+02
1.631999969482421875e+01,1.346045837402343750e+02
1.635999870300292969e+01,1.342615051269531250e+02
1.639999961853027344e+01,1.339181213378906250e+02
1.643999862670898438e+01,1.335744934082031250e+02
1.647999954223632812e+01,1.332304687500000000e+02
1.652000045776367188e+01,1.328970031738281250e+02
1.655999946594238281e+01,1.325632781982421875e+02
1.660000038146972656e+01,1.322292785644531250e+02
1.663999938964843750e+01,1.318949584960937500e+02
1.668000030517578125e+01,1.315603179931640625e+02
1.671999931335449219e+01,1.312322998046875000e+02
1.676000022888183594e+01,1.309038848876953125e+02
1.679999923706054688e+01,1.305751495361328125e+02
1.684000015258789062e+01,1.302460632324218750e+02
1.687999916076660156e+01,1.299166564941406250e+02
1.692000007629394531e+01,1.295813446044921875e+02
1.695999908447265625e+01,1.292457733154296875e+02
1.700000000000000000e+01,1.289183044433593750e+02
1.703999900817871094e+01,1.285988616943359375e+02
1.707999992370605469e+01,1.282792053222656250e+02
1.711999893188476562e+01,1.279554977416992188e+02
1.715999984741210938e+01,1.276315765380859375e+02
1.719999885559082031e+01,1.273075866699218750e+02
1.723999977111816406e+01,1.269834594726562500e+02
1.727999877929687500e+01,1.266273193359375000e+02
1.731999969482421875e+01,1.262586212158203125e+02
1.735999870300292969e+01,1.258901290893554688e+02
1.739999961853027344e+01,1.255216751098632812e+02
1.743999862670898438e+01,1.251528549194335938e+02
1.747999954223632812e+01,1.247827148437500000e+02
