# Start of Energy Bin (keV), Effective Area (cm^2)
1.600000023841857910e+00,9.525550603866577148e-01
1.639999985694885254e+00,1.328472614288330078e+00
1.680000066757202148e+00,1.845840215682983398e+00
1.720000028610229492e+00,2.555749416351318359e+00
1.759999990463256836e+00,3.475728988647460938e+00
1.799999952316284180e+00,4.407530784606933594e+00
1.840000033378601074e+00,2.461424827575683594e+00
1.879999995231628418e+00,3.147383689880371094e+00
1.920000076293945312e+00,4.097929477691650391e+00
1.960000038146972656e+00,5.156691551208496094e+00
2.000000000000000000e+00,6.365925788879394531e+00
2.039999961853027344e+00,7.782948017120361328e+00
2.079999923706054688e+00,9.501669883728027344e+00
2.119999885559082031e+00,8.642792701721191406e+00
2.160000085830688477e+00,1.003819942474365234e+01
2.200000047683715820e+00,1.047505950927734375e+01
2.240000009536743164e+00,1.200187301635742188e+01
2.279999971389770508e+00,1.378811931610107422e+01
2.319999933242797852e+00,1.597574615478515625e+01
2.360000133514404297e+00,1.809892845153808594e+01
2.400000095367431641e+00,2.013510894775390625e+01
2.440000057220458984e+00,2.244197463989257812e+01
2.480000019073486328e+00,2.513730621337890625e+01
2.519999980926513672e+00,2.838327217102050781e+01
2.559999942779541016e+00,3.195355606079101562e+01
2.599999904632568359e+00,3.519527053833007812e+01
2.639999866485595703e+00,3.587518692016601562e+01
2.679999828338623047e+00,3.913117599487304688e+01
2.720000028610229492e+00,4.263950347900390625e+01
2.759999990463256836e+00,4.643540954589843750e+01
2.799999952316284180e+00,5.052579116821289062e+01
2.840000152587890625e+00,5.474982452392578125e+01
2.880000114440917969e+00,5.839047622680664062e+01
2.920000076293945312e+00,6.220237731933593750e+01
2.960000038146972656e+00,6.624059295654296875e+01
3.000000000000000000e+00,7.090820312500000000e+01
3.039999961853027344e+00,7.410324096679687500e+01
3.079999923706054688e+00,7.927711486816406250e+01
3.119999885559082031e+00,8.469692993164062500e+01
3.159999847412109375e+00,8.939283752441406250e+01
3.199999809265136719e+00,9.428507995605468750e+01
3.240000009536743164e+00,9.938294982910156250e+01
3.279999971389770508e+00,1.033063507080078125e+02
3.319999933242797852e+00,1.069173126220703125e+02
3.360000133514404297e+00,1.105848617553710938e+02
3.400000095367431641e+00,1.143216018676757812e+02
3.440000057220458984e+00,1.185087280273437500e+02
3.480000019073486328e+00,1.221129837036132812e+02
3.519999980926513672e+00,1.179963226318359375e+02
3.559999942779541016e+00,1.215944366455078125e+02
3.599999904632568359e+00,1.253376159667968750e+02
3.639999866485595703e+00,1.291497192382812500e+02
3.679999828338623047e+00,1.330361022949218750e+02
3.719999790191650391e+00,1.328735809326171875e+02
3.759999752044677734e+00,1.369007873535156250e+02
3.800000190734863281e+00,1.404897460937500000e+02
3.840000152587890625e+00,1.437792968750000000e+02
3.880000114440917969e+00,1.470962524414062500e+02
3.920000076293945312e+00,1.507383117675781250e+02
3.960000038146972656e+00,1.545186309814453125e+02
4.000000000000000000e+00,1.560798339843750000e+02
4.039999961853027344e+00,1.597664489746093750e+02
4.079999923706054688e+00,1.634923706054687500e+02
4.119999885559082031e+00,1.672584991455078125e+02
4.159999847412109375e+00,1.710197448730468750e+02
4.199999809265136719e+00,1.742148895263671875e+02
4.239999771118164062e+00,1.774238281250000000e+02
4.279999732971191406e+00,1.806550445556640625e+02
4.320000171661376953e+00,1.763144836425781250e+02
4.360000133514404297e+00,1.770579681396484375e+02
4.400000095367431641e+00,1.801260681152343750e+02
4.440000057220458984e+00,1.832174377441406250e+02
4.480000019073486328e+00,1.863481750488281250e+02
4.519999980926513672e+00,1.895053863525390625e+02
4.559999942779541016e+00,1.926635894775390625e+02
4.599999904632568359e+00,1.901650695800781250e+02
4.639999866485595703e+00,1.930505676269531250e+02
4.679999828338623047e+00,1.956740722656250000e+02
4.719999790191650391e+00,1.983005981445312500e+02
4.759999752044677734e+00,2.009320983886718750e+02
4.799999713897705078e+00,2.035692749023437500e+02
4.840000152587890625e+00,2.061989746093750000e+02
4.880000114440917969e+00,2.088278503417968750e+02
4.920000076293945312e+00,2.088353881835937500e+02
4.960000038146972656e+00,2.114682769775390625e+02
5.000000000000000000e+00,2.140489654541015625e+02
5.039999961853027344e+00,2.167474060058593750e+02
5.079999923706054688e+00,2.192775878906250000e+02
5.119999885559082031e+00,2.218025970458984375e+02
5.159999847412109375e+00,2.243241424560546875e+02
5.199999809265136719e+00,2.268396759033203125e+02
5.239999771118164062e+00,2.293514251708984375e+02
5.279999732971191406e+00,2.318655853271484375e+02
5.320000171661376953e+00,2.343817291259765625e+02
5.360000133514404297e+00,2.369001464843750000e+02
5.400000095367431641e+00,2.394166717529296875e+02
5.440000057220458984e+00,2.419288177490234375e+02
5.480000019073486328e+00,2.444411010742187500e+02
5.519999980926513672e+00,2.469538269042968750e+02
5.559999942779541016e+00,2.492961120605468750e+02
5.599999904632568359e+00,2.514586181640625000e+02
5.639999866485595703e+00,2.536160736083984375e+02
5.679999828338623047e+00,2.557698059082031250e+02
5.719999790191650391e+00,2.579210205078125000e+02
5.759999752044677734e+00,2.600686645507812500e+02
5.799999713897705078e+00,2.621929931640625000e+02
5.839999675750732422e+00,2.642953186035156250e+02
5.879999637603759766e+00,2.663937377929687500e+02
5.919999599456787109e+00,2.684884643554687500e+02
5.960000038146972656e+00,2.705790405273437500e+02
6.000000000000000000e+00,2.725021362304687500e+02
6.039999961853027344e+00,2.742538146972656250e+02
6.079999923706054688e+00,2.759984436035156250e+02
6.119999885559082031e+00,2.776029663085937500e+02
6.159999847412109375e+00,2.791099853515625000e+02
6.199999809265136719e+00,2.806193237304687500e+02
6.239999771118164062e+00,2.821318359375000000e+02
6.279999732971191406e+00,2.836368408203125000e+02
6.319999694824218750e+00,2.851345214843750000e+02
6.359999656677246094e+00,2.866244812011718750e+02
6.399999618530273438e+00,2.881018676757812500e+02
6.439999580383300781e+00,2.895669555664062500e+02
6.480000019073486328e+00,2.910249938964843750e+02
6.519999980926513672e+00,2.924762268066406250e+02
6.559999942779541016e+00,2.939207763671875000e+02
6.599999904632568359e+00,2.953541259765625000e+02
6.639999866485595703e+00,2.967763366699218750e+02
6.679999828338623047e+00,2.981922607421875000e+02
6.719999790191650391e+00,2.995404663085937500e+02
6.759999752044677734e+00,3.007535095214843750e+02
6.799999713897705078e+00,3.019494628906250000e+02
6.839999675750732422e+00,3.031287536621093750e+02
6.879999637603759766e+00,3.043012695312500000e+02
6.919999599456787109e+00,3.054673767089843750e+02
6.959999561309814453e+00,3.066269531250000000e+02
7.000000000000000000e+00,3.076972045898437500e+02
7.039999961853027344e+00,3.086772766113281250e+02
7.079999923706054688e+00,3.096521301269531250e+02
7.119999885559082031e+00,3.089768066406250000e+02
7.159999847412109375e+00,3.099229736328125000e+02
7.199999809265136719e+00,3.108994445800781250e+02
7.239999771118164062e+00,3.119075317382812500e+02
7.279999732971191406e+00,3.129096069335937500e+02
7.319999694824218750e+00,3.139053955078125000e+02
7.359999656677246094e+00,3.148951721191406250e+02
7.399999618530273438e+00,3.158687133789062500e+02
7.439999580383300781e+00,3.168261413574218750e+02
7.479999542236328125e+00,3.177782592773437500e+02
7.519999980926513672e+00,3.187244873046875000e+02
7.559999942779541016e+00,3.196653747558593750e+02
7.599999904632568359e+00,3.205950622558593750e+02
7.639999866485595703e+00,3.215131835937500000e+02
7.679999828338623047e+00,3.224265136718750000e+02
7.719999790191650391e+00,3.233350830078125000e+02
7.759999752044677734e+00,3.242394714355468750e+02
7.799999713897705078e+00,3.251350708007812500e+02
7.839999675750732422e+00,3.260210571289062500e+02
7.879999637603759766e+00,3.269025878906250000e+02
7.919999599456787109e+00,3.277798461914062500e+02
7.959999561309814453e+00,3.286525268554687500e+02
7.999999523162841797e+00,3.295126342773437500e+02
8.039999961853027344e+00,3.303604125976562500e+02
8.079999923706054688e+00,3.312042846679687500e+02
8.119999885559082031e+00,3.320440673828125000e+02
8.159999847412109375e+00,3.327903442382812500e+02
8.199999809265136719e+00,3.335259704589843750e+02
8.239999771118164062e+00,3.342149658203125000e+02
8.279999732971191406e+00,3.347901916503906250e+02
8.319999694824218750e+00,3.353611755371093750e+02
8.359999656677246094e+00,3.359280090332031250e+02
8.399999618530273438e+00,3.364834289550781250e+02
8.439999580383300781e+00,3.370284118652343750e+02
8.479999542236328125e+00,3.375693054199218750e+02
8.520000457763671875e+00,3.381064147949218750e+02
8.560000419616699219e+00,3.386394958496093750e+02
8.600000381469726562e+00,3.391591186523437500e+02
8.640000343322753906e+00,3.396649780273437500e+02
8.680000305175781250e+00,3.401671142578125000e+02
8.720000267028808594e+00,3.406653442382812500e+02
8.760000228881835938e+00,3.411599121093750000e+02
8.800000190734863281e+00,3.416406250000000000e+02
8.840000152587890625e+00,3.421076049804687500e+02
8.880000114440917969e+00,3.425709228515625000e+02
8.920000076293945312e+00,3.430317687988281250e+02
8.960000038146972656e+00,3.434392089843750000e+02
9.000000000000000000e+00,3.438029479980468750e+02
9.039999961853027344e+00,3.441507873535156250e+02
9.079999923706054688e+00,3.444951171875000000e+02
9.119999885559082031e+00,3.448136291503906250e+02
9.159999847412109375e+00,3.450177001953125000e+02
9.199999809265136719e+00,3.452007751464843750e+02
9.239999771118164062e+00,3.453627929687500000e+02
9.279999732971191406e+00,3.455213623046875000e+02
9.319999694824218750e+00,3.456766967773437500e+02
9.359999656677246094e+00,3.458285522460937500e+02
9.399999618530273438e+00,3.459489135742187500e+02
9.439999580383300781e+00,3.460379638671875000e+02
9.479999542236328125e+00,3.461237487792968750e+02
9.519999504089355469e+00,3.462064819335937500e+02
9.560000419616699219e+00,3.462863159179687500e+02
9.600000381469726562e+00,3.461534118652343750e+02
9.640000343322753906e+00,3.458877563476562500e+02
9.680000305175781250e+00,3.458609313964843750e+02
9.720000267028808594e+00,3.458308715820312500e+02
9.760000228881835938e+00,3.457976989746093750e+02
9.800000190734863281e+00,3.454954528808593750e+02
9.840000152587890625e+00,3.449125061035156250e+02
9.880000114440917969e+00,3.442921142578125000e+02
9.920000076293945312e+00,3.436683959960937500e+02
9.960000038146972656e+00,3.439510498046875000e+02
1.000000000000000000e+01,3.411863708496093750e+02
1.003999996185302734e+01,3.346685791015625000e+02
1.007999992370605469e+01,3.280726928710937500e+02
1.011999988555908203e+01,3.213988952636718750e+02
1.015999984741210938e+01,3.146475219726562500e+02
1.019999980926513672e+01,3.067017822265625000e+02
1.023999977111816406e+01,3.069530639648437500e+02
1.027999973297119141e+01,3.071918334960937500e+02
1.032000064849853516e+01,3.074183959960937500e+02
1.036000061035156250e+01,3.076331176757812500e+02
1.040000057220458984e+01,3.090187683105468750e+02
1.044000053405761719e+01,3.111418151855468750e+02
1.048000049591064453e+01,3.119135437011718750e+02
1.052000045776367188e+01,3.126808166503906250e+02
1.056000041961669922e+01,3.134437255859375000e+02
1.060000038146972656e+01,3.136126403808593750e+02
1.064000034332275391e+01,3.131901245117187500e+02
1.068000030517578125e+01,3.127654113769531250e+02
1.072000026702880859e+01,3.123384704589843750e+02
1.076000022888183594e+01,3.119098510742187500e+02
1.080000019073486328e+01,3.113374633789062500e+02
1.084000015258789062e+01,3.106000976562500000e+02
1.088000011444091797e+01,3.098510131835937500e+02
1.092000007629394531e+01,3.091008300781250000e+02
1.096000003814697266e+01,3.083497924804687500e+02
1.100000000000000000e+01,3.074537963867187500e+02
1.103999996185302734e+01,3.064129333496093750e+02
1.107999992370605469e+01,3.053721313476562500e+02
1.111999988555908203e+01,3.054035949707031250e+02
1.115999984741210938e+01,3.054314575195312500e+02
1.119999980926513672e+01,3.048703002929687500e+02
1.123999977111816406e+01,3.037160644531250000e+02
1.127999973297119141e+01,3.025529479980468750e+02
1.131999969482421875e+01,3.013806457519531250e+02
1.136000061035156250e+01,3.001997375488281250e+02
1.140000057220458984e+01,2.974946594238281250e+02
1.144000053405761719e+01,2.932556152343750000e+02
1.148000049591064453e+01,2.889940795898437500e+02
1.152000045776367188e+01,2.844334106445312500e+02
1.156000041961669922e+01,2.720856933593750000e+02
1.160000038146972656e+01,2.686029052734375000e+02
1.164000034332275391e+01,2.676122436523437500e+02
1.168000030517578125e+01,2.666133728027343750e+02
1.172000026702880859e+01,2.656018371582031250e+02
1.176000022888183594e+01,2.645785217285156250e+02
1.180000019073486328e+01,2.634583740234375000e+02
1.184000015258789062e+01,2.622467041015625000e+02
1.188000011444091797e+01,2.610339965820312500e+02
1.192000007629394531e+01,2.598104858398437500e+02
1.196000003814697266e+01,2.585775146484375000e+02
1.200000000000000000e+01,2.571786499023437500e+02
1.203999996185302734e+01,2.556143646240234375e+02
1.207999992370605469e+01,2.544699707031250000e+02
1.211999988555908203e+01,2.545552673339843750e+02
1.215999984741210938e+01,2.546397705078125000e+02
1.219999980926513672e+01,2.546672210693359375e+02
1.223999977111816406e+01,2.546372985839843750e+02
1.227999973297119141e+01,2.546060180664062500e+02
1.231999969482421875e+01,2.545731506347656250e+02
1.236000061035156250e+01,2.545390777587890625e+02
1.240000057220458984e+01,2.543927612304687500e+02
1.244000053405761719e+01,2.541350097656250000e+02
1.248000049591064453e+01,2.538758697509765625e+02
1.252000045776367188e+01,2.536154174804687500e+02
1.256000041961669922e+01,2.533540954589843750e+02
1.260000038146972656e+01,2.530272521972656250e+02
1.264000034332275391e+01,2.526351470947265625e+02
1.268000030517578125e+01,2.522422332763671875e+02
1.272000026702880859e+01,2.518481750488281250e+02
1.276000022888183594e+01,2.514530029296875000e+02
1.280000019073486328e+01,2.510205688476562500e+02
1.284000015258789062e+01,2.505507507324218750e+02
1.288000011444091797e+01,2.500809326171875000e+02
1.292000007629394531e+01,2.496102600097656250e+02
1.296000003814697266e+01,2.491387329101562500e+02
1.300000000000000000e+01,2.484448242187500000e+02
1.303999996185302734e+01,2.475287780761718750e+02
1.307999992370605469e+01,2.466127014160156250e+02
1.311999988555908203e+01,2.456870574951171875e+02
1.315999984741210938e+01,2.447581176757812500e+02
1.319999980926513672e+01,2.437076721191406250e+02
1.323999977111816406e+01,2.425366363525390625e+02
1.327999973297119141e+01,2.410031127929687500e+02
1.331999969482421875e+01,2.372787170410156250e+02
1.335999965667724609e+01,2.357527770996093750e+02
1.340000057220458984e+01,2.346654205322265625e+02
1.344000053405761719e+01,2.339561309814453125e+02
1.348000049591064453e+01,2.332464904785156250e+02
1.352000045776367188e+01,2.325360107421875000e+02
1.356000041961669922e+01,2.318254241943359375e+02
1.360000038146972656e+01,2.310702209472656250e+02
1.364000034332275391e+01,2.302708129882812500e+02
1.368000030517578125e+01,2.294704437255859375e+02
1.372000026702880859e+01,2.286698150634765625e+02
1.376000022888183594e+01,2.278687438964843750e+02
1.380000019073486328e+01,2.270039367675781250e+02
1.384000015258789062e+01,2.252943572998046875e+02
1.388000011444091797e+01,2.243530731201171875e+02
1.392000007629394531e+01,2.238044128417968750e+02
1.396000003814697266e+01,2.232568359375000000e+02
1.400000000000000000e+01,2.227680969238281250e+02
1.403999996185302734e+01,2.223381958007812500e+02
1.407999992370605469e+01,2.219076385498046875e+02
1.411999988555908203e+01,2.214760742187500000e+02
1.415999984741210938e+01,2.210439758300781250e+02
1.419999980926513672e+01,2.206121063232421875e+02
1.423999977111816406e+01,2.201804351806640625e+02
1.427999973297119141e+01,2.197482299804687500e+02
1.431999969482421875e+01,2.193156738281250000e+02
1.435999965667724609e+01,2.188827209472656250e+02
1.439999961853027344e+01,2.184230651855468750e+02
1.444000053405761719e+01,2.179300079345703125e+02
1.448000049591064453e+01,2.174370117187500000e+02
1.452000045776367188e+01,2.169438781738281250e+02
1.456000041961669922e+01,2.164503784179687500e+02
1.460000038146972656e+01,2.159439392089843750e+02
1.464000034332275391e+01,2.154244079589843750e+02
1.468000030517578125e+01,2.149047851562500000e+02
1.472000026702880859e+01,2.143849182128906250e+02
1.476000022888183594e+01,2.138648986816406250e+02
1.480000019073486328e+01,2.133341827392578125e+02
1.484000015258789062e+01,2.127926483154296875e+02
1.488000011444091797e+01,2.122506103515625000e+02
1.492000007629394531e+01,2.117083892822265625e+02
1.496000003814697266e+01,2.111660766601562500e+02
1.500000000000000000e+01,2.106125335693359375e+02
1.503999996185302734e+01,2.100477600097656250e+02
1.507999992370605469e+01,2.094828643798828125e+02
1.511999988555908203e+01,2.089178314208984375e+02
1.515999984741210938e+01,2.083528747558593750e+02
1.519999980926513672e+01,2.077751922607421875e+02
1.523999977111816406e+01,2.071848754882812500e+02
1.527999973297119141e+01,2.065945892333984375e+02
1.531999969482421875e+01,2.060043640136718750e+02
1.535999965667724609e+01,2.054141540527343750e+02
1.539999961853027344e+01,2.048174438476562500e+02
1.544000053405761719e+01,2.042142944335937500e+02
1.548000049591064453e+01,2.036112976074218750e+02
1.552000045776367188e+01,2.030086669921875000e+02
1.556000041961669922e+01,2.024060211181640625e+02
1.560000038146972656e+01,2.018065948486328125e+02
1.564000034332275391e+01,2.012104187011718750e+02
1.568000030517578125e+01,2.006142425537109375e+02
1.572000026702880859e+01,2.001619720458984375e+02
1.576000022888183594e+01,1.997112884521484375e+02
1.580000019073486328e+01,1.992451934814453125e+02
1.584000015258789062e+01,1.987636718750000000e+02
1.588000011444091797e+01,1.982777252197265625e+02
1.592000007629394531e+01,1.977911376953125000e+02
1.596000003814697266e+01,1.973040466308593750e+02
1.600000000000000000e+01,1.968131713867187500e+02
1.603999900817871094e+01,1.963184661865234375e+02
1.607999992370605469e+01,1.958233337402343750e+02
1.611999893188476562e+01,1.953277587890625000e+02
1.615999984741210938e+01,1.948316955566406250e+02
1.619999885559082031e+01,1.943352203369140625e+02
1.623999977111816406e+01,1.938382415771484375e+02
1.627999877929687500e+01,1.933409271240234375e+02
1.631999969482421875e+01,1.928430938720703125e+02
1.635999870300292969e+01,1.923448791503906250e+02
1.639999961853027344e+01,1.918463134765625000e+02
1.643999862670898438e+01,1.913474121093750000e+02
1.647999954223632812e+01,1.908479309082031250e+02
1.652000045776367188e+01,1.903601989746093750e+02
1.655999946594238281e+01,1.898721771240234375e+02
1.660000038146972656e+01,1.893837890625000000e+02
1.663999938964843750e+01,1.888949584960937500e+02
1.668000030517578125e+01,1.884057617187500000e+02
1.671999931335449219e+01,1.879162597656250000e+02
1.676000022888183594e+01,1.874263153076171875e+02
1.679999923706054688e+01,1.869360046386718750e+02
1.684000015258789062e+01,1.864452819824218750e+02
1.687999916076660156e+01,1.859542083740234375e+02
1.692000007629394531e+01,1.854627838134765625e+02
1.695999908447265625e+01,1.849710388183593750e+02
1.700000000000000000e+01,1.845034790039062500e+02
1.703999900817871094e+01,1.840598602294921875e+02
1.707999992370605469e+01,1.836159210205078125e+02
1.711999893188476562e+01,1.831717834472656250e+02
1.715999984741210938e+01,1.827272796630859375e+02
1.719999885559082031e+01,1.822826080322265625e+02
1.723999977111816406e+01,1.818376617431640625e+02
1.727999877929687500e+01,1.814179840087890625e+02
1.731999969482421875e+01,1.810060119628906250e+02
1.735999870300292969e+01,1.805937500000000000e+02
1.739999961853027344e+01,1.801809997558593750e+02
1.743999862670898438e+01,1.797671356201171875e+02
1.747999954223632812e+01,1.793508300781250000e+02
