# Start of Energy Bin (keV), Effective Area (cm^2)
1.600000023841857910e+00,9.067974686622619629e-01
1.639999985694885254e+00,1.263689637184143066e+00
1.680000066757202148e+00,1.754483461380004883e+00
1.720000028610229492e+00,2.427395105361938477e+00
1.759999990463256836e+00,3.298639059066772461e+00
1.799999952316284180e+00,4.178395271301269531e+00
1.840000033378601074e+00,2.330449819564819336e+00
1.879999995231628418e+00,2.978690862655639648e+00
1.920000076293945312e+00,3.880091667175292969e+00
1.960000038146972656e+00,4.884840011596679688e+00
2.000000000000000000e+00,6.033834457397460938e+00
2.039999961853027344e+00,7.382091522216796875e+00
2.079999923706054688e+00,9.018586158752441406e+00
2.119999885559082031e+00,8.205924987792968750e+00
2.160000085830688477e+00,9.531766891479492188e+00
2.200000047683715820e+00,9.947092056274414062e+00
2.240000009536743164e+00,1.139693355560302734e+01
2.279999971389770508e+00,1.309334373474121094e+01
2.319999933242797852e+00,1.517304706573486328e+01
2.360000133514404297e+00,1.719216346740722656e+01
2.400000095367431641e+00,1.912892723083496094e+01
2.440000057220458984e+00,2.132307243347167969e+01
2.480000019073486328e+00,2.388688278198242188e+01
2.519999980926513672e+00,2.697460746765136719e+01
2.559999942779541016e+00,3.037042999267578125e+01
2.599999904632568359e+00,3.345304870605468750e+01
2.639999866485595703e+00,3.410078811645507812e+01
2.679999828338623047e+00,3.719582366943359375e+01
2.720000028610229492e+00,4.053077697753906250e+01
2.759999990463256836e+00,4.413911819458007812e+01
2.799999952316284180e+00,4.802720260620117188e+01
2.840000152587890625e+00,5.204319000244140625e+01
2.880000114440917969e+00,5.550523757934570312e+01
2.920000076293945312e+00,5.913012695312500000e+01
2.960000038146972656e+00,6.297032165527343750e+01
3.000000000000000000e+00,6.729009246826171875e+01
3.039999961853027344e+00,7.007991027832031250e+01
3.079999923706054688e+00,7.471864318847656250e+01
3.119999885559082031e+00,7.956066131591796875e+01
3.159999847412109375e+00,8.369643402099609375e+01
3.199999809265136719e+00,8.799220275878906250e+01
3.240000009536743164e+00,9.245550537109375000e+01
3.279999971389770508e+00,9.580455017089843750e+01
3.319999933242797852e+00,9.996331024169921875e+01
3.360000133514404297e+00,1.042576904296875000e+02
3.400000095367431641e+00,1.086901702880859375e+02
3.440000057220458984e+00,1.128176727294921875e+02
3.480000019073486328e+00,1.161227111816406250e+02
3.519999980926513672e+00,1.120857238769531250e+02
3.559999942779541016e+00,1.153772125244140625e+02
3.599999904632568359e+00,1.187983245849609375e+02
3.639999866485595703e+00,1.222764053344726562e+02
3.679999828338623047e+00,1.258163299560546875e+02
3.719999790191650391e+00,1.255227355957031250e+02
3.759999752044677734e+00,1.291825561523437500e+02
3.800000190734863281e+00,1.324202575683593750e+02
3.840000152587890625e+00,1.353678894042968750e+02
3.880000114440917969e+00,1.383338012695312500e+02
3.920000076293945312e+00,1.417799682617187500e+02
3.960000038146972656e+00,1.454190979003906250e+02
4.000000000000000000e+00,1.469724426269531250e+02
4.039999961853027344e+00,1.505297393798828125e+02
4.079999923706054688e+00,1.541278533935546875e+02
4.119999885559082031e+00,1.577676696777343750e+02
4.159999847412109375e+00,1.614067382812500000e+02
4.199999809265136719e+00,1.645149230957031250e+02
4.239999771118164062e+00,1.676392364501953125e+02
4.279999732971191406e+00,1.707878112792968750e+02
4.320000171661376953e+00,1.667775421142578125e+02
4.360000133514404297e+00,1.674755859375000000e+02
4.400000095367431641e+00,1.703387145996093750e+02
4.440000057220458984e+00,1.732223815917968750e+02
4.480000019073486328e+00,1.761418914794921875e+02
4.519999980926513672e+00,1.790846252441406250e+02
4.559999942779541016e+00,1.820269622802734375e+02
4.599999904632568359e+00,1.796245727539062500e+02
4.639999866485595703e+00,1.823075714111328125e+02
4.679999828338623047e+00,1.847419128417968750e+02
4.719999790191650391e+00,1.871781616210937500e+02
4.759999752044677734e+00,1.896179199218750000e+02
4.799999713897705078e+00,1.920617523193359375e+02
4.840000152587890625e+00,1.944972381591796875e+02
4.880000114440917969e+00,1.969307708740234375e+02
4.920000076293945312e+00,1.968918762207031250e+02
4.960000038146972656e+00,1.993275756835937500e+02
5.000000000000000000e+00,2.017127685546875000e+02
5.039999961853027344e+00,2.042108154296875000e+02
5.079999923706054688e+00,2.065514068603515625e+02
5.119999885559082031e+00,2.088858489990234375e+02
5.159999847412109375e+00,2.112161560058593750e+02
5.199999809265136719e+00,2.135398101806640625e+02
5.239999771118164062e+00,2.158589477539062500e+02
5.279999732971191406e+00,2.181794433593750000e+02
5.320000171661376953e+00,2.205011901855468750e+02
5.360000133514404297e+00,2.228242492675781250e+02
5.400000095367431641e+00,2.251445465087890625e+02
5.440000057220458984e+00,2.274597015380859375e+02
5.480000019073486328e+00,2.297741851806640625e+02
5.519999980926513672e+00,2.320882263183593750e+02
5.559999942779541016e+00,2.342412719726562500e+02
5.599999904632568359e+00,2.362245025634765625e+02
5.639999866485595703e+00,2.382021331787109375e+02
5.679999828338623047e+00,2.401755981445312500e+02
5.719999790191650391e+00,2.421460113525390625e+02
5.759999752044677734e+00,2.441124114990234375e+02
5.799999713897705078e+00,2.460558776855468750e+02
5.839999675750732422e+00,2.479776916503906250e+02
5.879999637603759766e+00,2.498951721191406250e+02
5.919999599456787109e+00,2.518085327148437500e+02
5.960000038146972656e+00,2.537173614501953125e+02
6.000000000000000000e+00,2.554753112792968750e+02
6.039999961853027344e+00,2.570789489746093750e+02
6.079999923706054688e+00,2.586754455566406250e+02
6.119999885559082031e+00,2.601401672363281250e+02
6.159999847412109375e+00,2.615131225585937500e+02
6.199999809265136719e+00,2.628878479003906250e+02
6.239999771118164062e+00,2.642652282714843750e+02
6.279999732971191406e+00,2.656351318359375000e+02
6.319999694824218750e+00,2.669978637695312500e+02
6.359999656677246094e+00,2.683529663085937500e+02
6.399999618530273438e+00,2.696957092285156250e+02
6.439999580383300781e+00,2.710263061523437500e+02
6.480000019073486328e+00,2.723499450683593750e+02
6.519999980926513672e+00,2.736671142578125000e+02
6.559999942779541016e+00,2.749776611328125000e+02
6.599999904632568359e+00,2.762770690917968750e+02
6.639999866485595703e+00,2.775654907226562500e+02
6.679999828338623047e+00,2.788476562500000000e+02
6.719999790191650391e+00,2.800655822753906250e+02
6.759999752044677734e+00,2.811568603515625000e+02
6.799999713897705078e+00,2.822313232421875000e+02
6.839999675750732422e+00,2.832894897460937500e+02
6.879999637603759766e+00,2.843410339355468750e+02
6.919999599456787109e+00,2.853865966796875000e+02
6.959999561309814453e+00,2.864257202148437500e+02
7.000000000000000000e+00,2.873901977539062500e+02
7.039999961853027344e+00,2.882793579101562500e+02
7.079999923706054688e+00,2.891634826660156250e+02
7.119999885559082031e+00,2.885066833496093750e+02
7.159999847412109375e+00,2.893639221191406250e+02
7.199999809265136719e+00,2.902399597167968750e+02
7.239999771118164062e+00,2.911359863281250000e+02
7.279999732971191406e+00,2.920260925292968750e+02
7.319999694824218750e+00,2.929101257324218750e+02
7.359999656677246094e+00,2.937883300781250000e+02
7.399999618530273438e+00,2.946510009765625000e+02
7.439999580383300781e+00,2.954982910156250000e+02
7.479999542236328125e+00,2.963403930664062500e+02
7.519999980926513672e+00,2.971769409179687500e+02
7.559999942779541016e+00,2.980081787109375000e+02
7.599999904632568359e+00,2.988280944824218750e+02
7.639999866485595703e+00,2.996363220214843750e+02
7.679999828338623047e+00,3.004398803710937500e+02
7.719999790191650391e+00,3.012390441894531250e+02
7.759999752044677734e+00,3.020340881347656250e+02
7.799999713897705078e+00,3.028199157714843750e+02
7.839999675750732422e+00,3.035957336425781250e+02
7.879999637603759766e+00,3.043671264648437500e+02
7.919999599456787109e+00,3.051337585449218750e+02
7.959999561309814453e+00,3.058959655761718750e+02
7.999999523162841797e+00,3.066344299316406250e+02
8.039999961853027344e+00,3.073494262695312500e+02
8.079999923706054688e+00,3.080604858398437500e+02
8.119999885559082031e+00,3.087677612304687500e+02
8.159999847412109375e+00,3.093878173828125000e+02
8.199999809265136719e+00,3.099961547851562500e+02
8.239999771118164062e+00,3.105895080566406250e+02
8.279999732971191406e+00,3.111679382324218750e+02
8.319999694824218750e+00,3.117426147460937500e+02
8.359999656677246094e+00,3.123135070800781250e+02
8.399999618530273438e+00,3.128714294433593750e+02
8.439999580383300781e+00,3.134172668457031250e+02
8.479999542236328125e+00,3.139593811035156250e+02
8.520000457763671875e+00,3.144983520507812500e+02
8.560000419616699219e+00,3.150336914062500000e+02
8.600000381469726562e+00,3.155528869628906250e+02
8.640000343322753906e+00,3.160556640625000000e+02
8.680000305175781250e+00,3.165550537109375000e+02
8.720000267028808594e+00,3.170505371093750000e+02
8.760000228881835938e+00,3.175426940917968750e+02
8.800000190734863281e+00,3.180162353515625000e+02
8.840000152587890625e+00,3.184711914062500000e+02
8.880000114440917969e+00,3.189228210449218750e+02
8.920000076293945312e+00,3.193721313476562500e+02
8.960000038146972656e+00,3.197717285156250000e+02
9.000000000000000000e+00,3.201201171875000000e+02
9.039999961853027344e+00,3.204429321289062500e+02
9.079999923706054688e+00,3.207624511718750000e+02
9.119999885559082031e+00,3.210787048339843750e+02
9.159999847412109375e+00,3.213903808593750000e+02
9.199999809265136719e+00,3.216629333496093750e+02
9.239999771118164062e+00,3.218961791992187500e+02
9.279999732971191406e+00,3.221263427734375000e+02
9.319999694824218750e+00,3.223535156250000000e+02
9.359999656677246094e+00,3.225774536132812500e+02
9.399999618530273438e+00,3.227373046875000000e+02
9.439999580383300781e+00,3.228330688476562500e+02
9.479999542236328125e+00,3.229257202148437500e+02
9.519999504089355469e+00,3.230249633789062500e+02
9.560000419616699219e+00,3.231214599609375000e+02
9.600000381469726562e+00,3.229627075195312500e+02
9.640000343322753906e+00,3.226233520507812500e+02
9.680000305175781250e+00,3.225066223144531250e+02
9.720000267028808594e+00,3.223770141601562500e+02
9.760000228881835938e+00,3.222442932128906250e+02
9.800000190734863281e+00,3.217163391113281250e+02
9.840000152587890625e+00,3.207830200195312500e+02
9.880000114440917969e+00,3.198155212402343750e+02
9.920000076293945312e+00,3.188457031250000000e+02
9.960000038146972656e+00,3.185196228027343750e+02
1.000000000000000000e+01,3.152887268066406250e+02
1.003999996185302734e+01,3.086600952148437500e+02
1.007999992370605469e+01,3.019845581054687500e+02
1.011999988555908203e+01,2.952745971679687500e+02
1.015999984741210938e+01,2.885183410644531250e+02
1.019999980926513672e+01,2.809088134765625000e+02
1.023999977111816406e+01,2.811279907226562500e+02
1.027999973297119141e+01,2.813367309570312500e+02
1.032000064849853516e+01,2.815238342285156250e+02
1.036000061035156250e+01,2.817009582519531250e+02
1.040000057220458984e+01,2.829091186523437500e+02
1.044000053405761719e+01,2.847476501464843750e+02
1.048000049591064453e+01,2.853409423828125000e+02
1.052000045776367188e+01,2.859293823242187500e+02
1.056000041961669922e+01,2.865127868652343750e+02
1.060000038146972656e+01,2.865116577148437500e+02
1.064000034332275391e+01,2.859291687011718750e+02
1.068000030517578125e+01,2.853448181152343750e+02
1.072000026702880859e+01,2.847581787109375000e+02
1.076000022888183594e+01,2.841700439453125000e+02
1.080000019073486328e+01,2.834605102539062500e+02
1.084000015258789062e+01,2.826104125976562500e+02
1.088000011444091797e+01,2.817500610351562500e+02
1.092000007629394531e+01,2.808892211914062500e+02
1.096000003814697266e+01,2.800279541015625000e+02
1.100000000000000000e+01,2.790522155761718750e+02
1.103999996185302734e+01,2.779620361328125000e+02
1.107999992370605469e+01,2.768724365234375000e+02
1.111999988555908203e+01,2.768144836425781250e+02
1.115999984741210938e+01,2.767535095214843750e+02
1.119999980926513672e+01,2.761756591796875000e+02
1.123999977111816406e+01,2.750776062011718750e+02
1.127999973297119141e+01,2.739721679687500000e+02
1.131999969482421875e+01,2.728852844238281250e+02
1.136000061035156250e+01,2.717910766601562500e+02
1.140000057220458984e+01,2.693366088867187500e+02
1.144000053405761719e+01,2.655125732421875000e+02
1.148000049591064453e+01,2.616680297851562500e+02
1.152000045776367188e+01,2.575075073242187500e+02
1.156000041961669922e+01,2.462942504882812500e+02
1.160000038146972656e+01,2.431060638427734375e+02
1.164000034332275391e+01,2.421775207519531250e+02
1.168000030517578125e+01,2.412419433593750000e+02
1.172000026702880859e+01,2.403317260742187500e+02
1.176000022888183594e+01,2.394109802246093750e+02
1.180000019073486328e+01,2.384379730224609375e+02
1.184000015258789062e+01,2.374169006347656250e+02
1.188000011444091797e+01,2.363942108154296875e+02
1.192000007629394531e+01,2.353432312011718750e+02
1.196000003814697266e+01,2.342832336425781250e+02
1.200000000000000000e+01,2.330636596679687500e+02
1.203999996185302734e+01,2.316850585937500000e+02
1.207999992370605469e+01,2.306920471191406250e+02
1.211999988555908203e+01,2.308286590576171875e+02
1.215999984741210938e+01,2.309644165039062500e+02
1.219999980926513672e+01,2.310462188720703125e+02
1.223999977111816406e+01,2.310738067626953125e+02
1.227999973297119141e+01,2.311001739501953125e+02
1.231999969482421875e+01,2.311292114257812500e+02
1.236000061035156250e+01,2.311571655273437500e+02
1.240000057220458984e+01,2.310792694091796875e+02
1.244000053405761719e+01,2.308961029052734375e+02
1.248000049591064453e+01,2.307116394042968750e+02
1.252000045776367188e+01,2.305217285156250000e+02
1.256000041961669922e+01,2.303309783935546875e+02
1.260000038146972656e+01,2.300736694335937500e+02
1.264000034332275391e+01,2.297500000000000000e+02
1.268000030517578125e+01,2.294255218505859375e+02
1.272000026702880859e+01,2.290958099365234375e+02
1.276000022888183594e+01,2.287650451660156250e+02
1.280000019073486328e+01,2.283911437988281250e+02
1.284000015258789062e+01,2.279740447998046875e+02
1.288000011444091797e+01,2.275568542480468750e+02
1.292000007629394531e+01,2.271470947265625000e+02
1.296000003814697266e+01,2.267364807128906250e+02
1.300000000000000000e+01,2.261038208007812500e+02
1.303999996185302734e+01,2.252494201660156250e+02
1.307999992370605469e+01,2.243952178955078125e+02
1.311999988555908203e+01,2.235276336669921875e+02
1.315999984741210938e+01,2.226572875976562500e+02
1.319999980926513672e+01,2.216639862060546875e+02
1.323999977111816406e+01,2.205488281250000000e+02
1.327999973297119141e+01,2.191276092529296875e+02
1.331999969482421875e+01,2.157152099609375000e+02
1.335999965667724609e+01,2.143400878906250000e+02
1.340000057220458984e+01,2.133655090332031250e+02
1.344000053405761719e+01,2.127239837646484375e+02
1.348000049591064453e+01,2.120821075439453125e+02
1.352000045776367188e+01,2.114418640136718750e+02
1.356000041961669922e+01,2.108015136718750000e+02
1.360000038146972656e+01,2.101055908203125000e+02
1.364000034332275391e+01,2.093545989990234375e+02
1.368000030517578125e+01,2.086029357910156250e+02
1.372000026702880859e+01,2.078452758789062500e+02
1.376000022888183594e+01,2.070875244140625000e+02
1.380000019073486328e+01,2.062652130126953125e+02
1.384000015258789062e+01,2.046689910888671875e+02
1.388000011444091797e+01,2.037822723388671875e+02
1.392000007629394531e+01,2.032567443847656250e+02
1.396000003814697266e+01,2.027323608398437500e+02
1.400000000000000000e+01,2.022588195800781250e+02
1.403999996185302734e+01,2.018360748291015625e+02
1.407999992370605469e+01,2.014129333496093750e+02
1.411999988555908203e+01,2.009962158203125000e+02
1.415999984741210938e+01,2.005791473388671875e+02
1.419999980926513672e+01,2.001605377197265625e+02
1.423999977111816406e+01,1.997403717041015625e+02
1.427999973297119141e+01,1.993198699951171875e+02
1.431999969482421875e+01,1.988892364501953125e+02
1.435999965667724609e+01,1.984584350585937500e+02
1.439999961853027344e+01,1.980046539306640625e+02
1.444000053405761719e+01,1.975218200683593750e+02
1.448000049591064453e+01,1.970392608642578125e+02
1.452000045776367188e+01,1.965552978515625000e+02
1.456000041961669922e+01,1.960712585449218750e+02
1.460000038146972656e+01,1.955802154541015625e+02
1.464000034332275391e+01,1.950820770263671875e+02
1.468000030517578125e+01,1.945839843750000000e+02
1.472000026702880859e+01,1.940970611572265625e+02
1.476000022888183594e+01,1.936101226806640625e+02
1.480000019073486328e+01,1.931197357177734375e+02
1.484000015258789062e+01,1.926257934570312500e+02
1.488000011444091797e+01,1.921314544677734375e+02
1.492000007629394531e+01,1.916273803710937500e+02
1.496000003814697266e+01,1.911233520507812500e+02
1.500000000000000000e+01,1.906169128417968750e+02
1.503999996185302734e+01,1.901079711914062500e+02
1.507999992370605469e+01,1.895989837646484375e+02
1.511999988555908203e+01,1.890953369140625000e+02
1.515999984741210938e+01,1.885917816162109375e+02
1.519999980926513672e+01,1.880841217041015625e+02
1.523999977111816406e+01,1.875723571777343750e+02
1.527999973297119141e+01,1.870605468750000000e+02
1.531999969482421875e+01,1.865461120605468750e+02
1.535999965667724609e+01,1.860316314697265625e+02
1.539999961853027344e+01,1.855185089111328125e+02
1.544000053405761719e+01,1.850067138671875000e+02
1.548000049591064453e+01,1.844949188232421875e+02
1.552000045776367188e+01,1.839833984375000000e+02
1.556000041961669922e+01,1.834717407226562500e+02
1.560000038146972656e+01,1.829703674316406250e+02
1.564000034332275391e+01,1.824791870117187500e+02
1.568000030517578125e+01,1.819878845214843750e+02
1.572000026702880859e+01,1.815872497558593750e+02
1.576000022888183594e+01,1.811873931884765625e+02
1.580000019073486328e+01,1.807790222167968750e+02
1.584000015258789062e+01,1.803619995117187500e+02
1.588000011444091797e+01,1.799408874511718750e+02
1.592000007629394531e+01,1.795191192626953125e+02
1.596000003814697266e+01,1.790968017578125000e+02
1.600000000000000000e+01,1.786766815185546875e+02
1.603999900817871094e+01,1.782587127685546875e+02
1.607999992370605469e+01,1.778401794433593750e+02
1.611999893188476562e+01,1.774210968017578125e+02
1.615999984741210938e+01,1.770014190673828125e+02
1.619999885559082031e+01,1.765812225341796875e+02
1.623999977111816406e+01,1.761604309082031250e+02
1.627999877929687500e+01,1.757391357421875000e+02
1.631999969482421875e+01,1.753172607421875000e+02
1.635999870300292969e+01,1.748948974609375000e+02
1.639999961853027344e+01,1.744720306396484375e+02
1.643999862670898438e+01,1.740487060546875000e+02
1.647999954223632812e+01,1.736247558593750000e+02
1.652000045776367188e+01,1.732079010009765625e+02
1.655999946594238281e+01,1.727906341552734375e+02
1.660000038146972656e+01,1.723729248046875000e+02
1.663999938964843750e+01,1.719546966552734375e+02
1.668000030517578125e+01,1.715359802246093750e+02
1.671999931335449219e+01,1.711168670654296875e+02
1.676000022888183594e+01,1.706972198486328125e+02
1.679999923706054688e+01,1.702771301269531250e+02
1.684000015258789062e+01,1.698565063476562500e+02
1.687999916076660156e+01,1.694354400634765625e+02
1.692000007629394531e+01,1.690139312744140625e+02
1.695999908447265625e+01,1.685920410156250000e+02
1.700000000000000000e+01,1.681841125488281250e+02
1.703999900817871094e+01,1.677900238037109375e+02
1.707999992370605469e+01,1.673955993652343750e+02
1.711999893188476562e+01,1.670012512207031250e+02
1.715999984741210938e+01,1.666065063476562500e+02
1.719999885559082031e+01,1.662115478515625000e+02
1.723999977111816406e+01,1.658163299560546875e+02
1.727999877929687500e+01,1.654113616943359375e+02
1.731999969482421875e+01,1.650025939941406250e+02
1.735999870300292969e+01,1.645937042236328125e+02
1.739999961853027344e+01,1.641845245361328125e+02
1.743999862670898438e+01,1.637744903564453125e+02
1.747999954223632812e+01,1.633623809814453125e+02
