# Start of Energy Bin (keV), Effective Area (cm^2)
1.600000023841857910e+00,9.377515316009521484e-01
1.639999985694885254e+00,1.307307481765747070e+00
1.680000066757202148e+00,1.815710783004760742e+00
1.720000028610229492e+00,2.513032913208007812e+00
1.759999990463256836e+00,3.416276454925537109e+00
1.799999952316284180e+00,4.329684734344482422e+00
1.840000033378601074e+00,2.416331291198730469e+00
1.879999995231628418e+00,3.089067697525024414e+00
1.920000076293945312e+00,4.022971153259277344e+00
1.960000038146972656e+00,5.063587188720703125e+00
2.000000000000000000e+00,6.252880573272705078e+00
2.039999961853027344e+00,7.647524833679199219e+00
2.079999923706054688e+00,9.339739799499511719e+00
2.119999885559082031e+00,8.496893882751464844e+00
2.160000085830688477e+00,9.869291305541992188e+00
2.200000047683715820e+00,1.029909324645996094e+01
2.240000009536743164e+00,1.180026626586914062e+01
2.279999971389770508e+00,1.355662727355957031e+01
2.319999933242797852e+00,1.570875358581542969e+01
2.360000133514404297e+00,1.779784393310546875e+01
2.400000095367431641e+00,1.980153274536132812e+01
2.440000057220458984e+00,2.207154464721679688e+01
2.480000019073486328e+00,2.472391319274902344e+01
2.519999980926513672e+00,2.791821861267089844e+01
2.559999942779541016e+00,3.143146514892578125e+01
2.599999904632568359e+00,3.462103652954101562e+01
2.639999866485595703e+00,3.529066467285156250e+01
2.679999828338623047e+00,3.849365234375000000e+01
2.720000028610229492e+00,4.194487380981445312e+01
2.759999990463256836e+00,4.567898941040039062e+01
2.799999952316284180e+00,4.970269393920898438e+01
2.840000152587890625e+00,5.385833740234375000e+01
2.880000114440917969e+00,5.744041061401367188e+01
2.920000076293945312e+00,6.119104003906250000e+01
2.960000038146972656e+00,6.516439819335937500e+01
3.000000000000000000e+00,6.967710876464843750e+01
3.039999961853027344e+00,7.265357971191406250e+01
3.079999923706054688e+00,7.755509948730468750e+01
3.119999885559082031e+00,8.267796325683593750e+01
3.159999847412109375e+00,8.707650756835937500e+01
3.199999809265136719e+00,9.165025329589843750e+01
3.240000009536743164e+00,9.640745544433593750e+01
3.279999971389770508e+00,1.000108871459960938e+02
3.319999933242797852e+00,1.040507507324218750e+02
3.360000133514404297e+00,1.082012710571289062e+02
3.400000095367431641e+00,1.124684143066406250e+02
3.440000057220458984e+00,1.166860351562500000e+02
3.480000019073486328e+00,1.201499710083007812e+02
3.519999980926513672e+00,1.160172042846679688e+02
3.559999942779541016e+00,1.194699249267578125e+02
3.599999904632568359e+00,1.230597534179687500e+02
3.639999866485595703e+00,1.267116699218750000e+02
3.679999828338623047e+00,1.304307556152343750e+02
3.719999790191650391e+00,1.301772918701171875e+02
3.759999752044677734e+00,1.340255126953125000e+02
3.800000190734863281e+00,1.374389343261718750e+02
3.840000152587890625e+00,1.405541687011718750e+02
3.880000114440917969e+00,1.436911315917968750e+02
3.920000076293945312e+00,1.472628936767578125e+02
3.960000038146972656e+00,1.510120239257812500e+02
4.000000000000000000e+00,1.525941467285156250e+02
4.039999961853027344e+00,1.562559509277343750e+02
4.079999923706054688e+00,1.599587402343750000e+02
4.119999885559082031e+00,1.637034301757812500e+02
4.159999847412109375e+00,1.674458923339843750e+02
4.199999809265136719e+00,1.706363983154296875e+02
4.239999771118164062e+00,1.738425140380859375e+02
4.279999732971191406e+00,1.770726165771484375e+02
4.320000171661376953e+00,1.728805541992187500e+02
4.360000133514404297e+00,1.736058502197265625e+02
4.400000095367431641e+00,1.765877990722656250e+02
4.440000057220458984e+00,1.795915832519531250e+02
4.480000019073486328e+00,1.826330566406250000e+02
4.519999980926513672e+00,1.856995086669921875e+02
4.559999942779541016e+00,1.887660217285156250e+02
4.599999904632568359e+00,1.862900543212890625e+02
4.639999866485595703e+00,1.890882568359375000e+02
4.679999828338623047e+00,1.916290283203125000e+02
4.719999790191650391e+00,1.941719818115234375e+02
4.759999752044677734e+00,1.967189941406250000e+02
4.799999713897705078e+00,1.992707214355468750e+02
4.840000152587890625e+00,2.018142700195312500e+02
4.880000114440917969e+00,2.043562164306640625e+02
4.920000076293945312e+00,2.043325653076171875e+02
4.960000038146972656e+00,2.068772430419921875e+02
5.000000000000000000e+00,2.093700103759765625e+02
5.039999961853027344e+00,2.119792480468750000e+02
5.079999923706054688e+00,2.144246063232421875e+02
5.119999885559082031e+00,2.168643493652343750e+02
5.159999847412109375e+00,2.193001251220703125e+02
5.199999809265136719e+00,2.217293701171875000e+02
5.239999771118164062e+00,2.241542968750000000e+02
5.279999732971191406e+00,2.265810089111328125e+02
5.320000171661376953e+00,2.290090332031250000e+02
5.360000133514404297e+00,2.314387817382812500e+02
5.400000095367431641e+00,2.338660278320312500e+02
5.440000057220458984e+00,2.362883148193359375e+02
5.480000019073486328e+00,2.387102050781250000e+02
5.519999980926513672e+00,2.411319274902343750e+02
5.559999942779541016e+00,2.433867340087890625e+02
5.599999904632568359e+00,2.454654083251953125e+02
5.639999866485595703e+00,2.475386047363281250e+02
5.679999828338623047e+00,2.496077270507812500e+02
5.719999790191650391e+00,2.516739196777343750e+02
5.759999752044677734e+00,2.537361755371093750e+02
5.799999713897705078e+00,2.557750244140625000e+02
5.839999675750732422e+00,2.577918090820312500e+02
5.879999637603759766e+00,2.598043212890625000e+02
5.919999599456787109e+00,2.618128051757812500e+02
5.960000038146972656e+00,2.638168029785156250e+02
6.000000000000000000e+00,2.656616516113281250e+02
6.039999961853027344e+00,2.673437500000000000e+02
6.079999923706054688e+00,2.690186157226562500e+02
6.119999885559082031e+00,2.705566406250000000e+02
6.159999847412109375e+00,2.719993286132812500e+02
6.199999809265136719e+00,2.734440917968750000e+02
6.239999771118164062e+00,2.748917541503906250e+02
6.279999732971191406e+00,2.763317871093750000e+02
6.319999694824218750e+00,2.777644348144531250e+02
6.359999656677246094e+00,2.791893310546875000e+02
6.399999618530273438e+00,2.806015930175781250e+02
6.439999580383300781e+00,2.820015563964843750e+02
6.480000019073486328e+00,2.833943481445312500e+02
6.519999980926513672e+00,2.847803344726562500e+02
6.559999942779541016e+00,2.861595458984375000e+02
6.599999904632568359e+00,2.875274658203125000e+02
6.639999866485595703e+00,2.888842163085937500e+02
6.679999828338623047e+00,2.902345581054687500e+02
6.719999790191650391e+00,2.915187683105468750e+02
6.759999752044677734e+00,2.926712646484375000e+02
6.799999713897705078e+00,2.938066711425781250e+02
6.839999675750732422e+00,2.949254150390625000e+02
6.879999637603759766e+00,2.960374145507812500e+02
6.919999599456787109e+00,2.971429443359375000e+02
6.959999561309814453e+00,2.982419433593750000e+02
7.000000000000000000e+00,2.992475585937500000e+02
7.039999961853027344e+00,3.001588439941406250e+02
7.079999923706054688e+00,3.010648193359375000e+02
7.119999885559082031e+00,3.003663940429687500e+02
7.159999847412109375e+00,3.012442321777343750e+02
7.199999809265136719e+00,3.021450500488281250e+02
7.239999771118164062e+00,3.030700683593750000e+02
7.279999732971191406e+00,3.039889526367187500e+02
7.319999694824218750e+00,3.049013977050781250e+02
7.359999656677246094e+00,3.058077087402343750e+02
7.399999618530273438e+00,3.066979675292968750e+02
7.439999580383300781e+00,3.075722656250000000e+02
7.479999542236328125e+00,3.084410400390625000e+02
7.519999980926513672e+00,3.093039550781250000e+02
7.559999942779541016e+00,3.101613159179687500e+02
7.599999904632568359e+00,3.110072631835937500e+02
7.639999866485595703e+00,3.118414306640625000e+02
7.679999828338623047e+00,3.126706848144531250e+02
7.719999790191650391e+00,3.134950256347656250e+02
7.759999752044677734e+00,3.143150024414062500e+02
7.799999713897705078e+00,3.151259155273437500e+02
7.839999675750732422e+00,3.159268493652343750e+02
7.879999637603759766e+00,3.167232055664062500e+02
7.919999599456787109e+00,3.175151367187500000e+02
7.959999561309814453e+00,3.183024291992187500e+02
7.999999523162841797e+00,3.190829772949218750e+02
8.039999961853027344e+00,3.198570556640625000e+02
8.079999923706054688e+00,3.206271362304687500e+02
8.119999885559082031e+00,3.213931274414062500e+02
8.159999847412109375e+00,3.220684204101562500e+02
8.199999809265136719e+00,3.227324218750000000e+02
8.239999771118164062e+00,3.233705749511718750e+02
8.279999732971191406e+00,3.239595031738281250e+02
8.319999694824218750e+00,3.245444335937500000e+02
8.359999656677246094e+00,3.251254272460937500e+02
8.399999618530273438e+00,3.256942138671875000e+02
8.439999580383300781e+00,3.262517089843750000e+02
8.479999542236328125e+00,3.268053588867187500e+02
8.520000457763671875e+00,3.273553771972656250e+02
8.560000419616699219e+00,3.279016113281250000e+02
8.600000381469726562e+00,3.284333190917968750e+02
8.640000343322753906e+00,3.289501037597656250e+02
8.680000305175781250e+00,3.294633789062500000e+02
8.720000267028808594e+00,3.299729309082031250e+02
8.760000228881835938e+00,3.304790039062500000e+02
8.800000190734863281e+00,3.309693908691406250e+02
8.840000152587890625e+00,3.314442138671875000e+02
8.880000114440917969e+00,3.319155578613281250e+02
8.920000076293945312e+00,3.323845520019531250e+02
8.960000038146972656e+00,3.328018188476562500e+02
9.000000000000000000e+00,3.331726074218750000e+02
9.039999961853027344e+00,3.335238037109375000e+02
9.079999923706054688e+00,3.338716125488281250e+02
9.119999885559082031e+00,3.342083435058593750e+02
9.159999847412109375e+00,3.345026245117187500e+02
9.199999809265136719e+00,3.347691345214843750e+02
9.239999771118164062e+00,3.350076293945312500e+02
9.279999732971191406e+00,3.352429809570312500e+02
9.319999694824218750e+00,3.354752807617187500e+02
9.359999656677246094e+00,3.357042846679687500e+02
9.399999618530273438e+00,3.358885498046875000e+02
9.439999580383300781e+00,3.360281066894531250e+02
9.479999542236328125e+00,3.361645202636718750e+02
9.519999504089355469e+00,3.362980041503906250e+02
9.560000419616699219e+00,3.364287414550781250e+02
9.600000381469726562e+00,3.363238525390625000e+02
9.640000343322753906e+00,3.360610961914062500e+02
9.680000305175781250e+00,3.360303649902343750e+02
9.720000267028808594e+00,3.359964294433593750e+02
9.760000228881835938e+00,3.359594116210937500e+02
9.800000190734863281e+00,3.355647277832031250e+02
9.840000152587890625e+00,3.348013916015625000e+02
9.880000114440917969e+00,3.340021057128906250e+02
9.920000076293945312e+00,3.332000732421875000e+02
9.960000038146972656e+00,3.331434936523437500e+02
1.000000000000000000e+01,3.300317382812500000e+02
1.003999996185302734e+01,3.232905883789062500e+02
1.007999992370605469e+01,3.164919433593750000e+02
1.011999988555908203e+01,3.096362915039062500e+02
1.015999984741210938e+01,3.027241516113281250e+02
1.019999980926513672e+01,2.948331298828125000e+02
1.023999977111816406e+01,2.950473022460937500e+02
1.027999973297119141e+01,2.952500915527343750e+02
1.032000064849853516e+01,2.954417724609375000e+02
1.036000061035156250e+01,2.956226806640625000e+02
1.040000057220458984e+01,2.969039611816406250e+02
1.044000053405761719e+01,2.988664245605468750e+02
1.048000049591064453e+01,2.995250244140625000e+02
1.052000045776367188e+01,3.001785278320312500e+02
1.056000041961669922e+01,3.008271484375000000e+02
1.060000038146972656e+01,3.008793029785156250e+02
1.064000034332275391e+01,3.003380737304687500e+02
1.068000030517578125e+01,2.997947998046875000e+02
1.072000026702880859e+01,2.992495422363281250e+02
1.076000022888183594e+01,2.987026672363281250e+02
1.080000019073486328e+01,2.980251464843750000e+02
1.084000015258789062e+01,2.971968688964843750e+02
1.088000011444091797e+01,2.963576660156250000e+02
1.092000007629394531e+01,2.955176391601562500e+02
1.096000003814697266e+01,2.946770629882812500e+02
1.100000000000000000e+01,2.937100524902343750e+02
1.103999996185302734e+01,2.926166687011718750e+02
1.107999992370605469e+01,2.915236816406250000e+02
1.111999988555908203e+01,2.914945068359375000e+02
1.115999984741210938e+01,2.914620666503906250e+02
1.119999980926513672e+01,2.908794860839843750e+02
1.123999977111816406e+01,2.897432861328125000e+02
1.127999973297119141e+01,2.885990600585937500e+02
1.131999969482421875e+01,2.874488525390625000e+02
1.136000061035156250e+01,2.862908630371093750e+02
1.140000057220458984e+01,2.836912231445312500e+02
1.144000053405761719e+01,2.796406555175781250e+02
1.148000049591064453e+01,2.755690307617187500e+02
1.152000045776367188e+01,2.712077636718750000e+02
1.156000041961669922e+01,2.594181823730468750e+02
1.160000038146972656e+01,2.560797119140625000e+02
1.164000034332275391e+01,2.551188507080078125e+02
1.168000030517578125e+01,2.541503601074218750e+02
1.172000026702880859e+01,2.531742248535156250e+02
1.176000022888183594e+01,2.521870422363281250e+02
1.180000019073486328e+01,2.511340026855468750e+02
1.184000015258789062e+01,2.500197296142578125e+02
1.188000011444091797e+01,2.489040985107421875e+02
1.192000007629394531e+01,2.477757263183593750e+02
1.196000003814697266e+01,2.466380462646484375e+02
1.200000000000000000e+01,2.453373565673828125e+02
1.203999996185302734e+01,2.438741302490234375e+02
1.207999992370605469e+01,2.428133850097656250e+02
1.211999988555908203e+01,2.429317474365234375e+02
1.215999984741210938e+01,2.430493164062500000e+02
1.219999980926513672e+01,2.431120452880859375e+02
1.223999977111816406e+01,2.431197204589843750e+02
1.227999973297119141e+01,2.431260681152343750e+02
1.231999969482421875e+01,2.431308898925781250e+02
1.236000061035156250e+01,2.431346130371093750e+02
1.240000057220458984e+01,2.430298767089843750e+02
1.244000053405761719e+01,2.428174438476562500e+02
1.248000049591064453e+01,2.426036376953125000e+02
1.252000045776367188e+01,2.423885192871093750e+02
1.256000041961669922e+01,2.421725006103515625e+02
1.260000038146972656e+01,2.418902740478515625e+02
1.264000034332275391e+01,2.415420837402343750e+02
1.268000030517578125e+01,2.411930236816406250e+02
1.272000026702880859e+01,2.408428192138671875e+02
1.276000022888183594e+01,2.404914855957031250e+02
1.280000019073486328e+01,2.400990753173828125e+02
1.284000015258789062e+01,2.396655120849609375e+02
1.288000011444091797e+01,2.392318420410156250e+02
1.292000007629394531e+01,2.387973632812500000e+02
1.296000003814697266e+01,2.383620452880859375e+02
1.300000000000000000e+01,2.377051391601562500e+02
1.303999996185302734e+01,2.368269042968750000e+02
1.307999992370605469e+01,2.359487457275390625e+02
1.311999988555908203e+01,2.350614013671875000e+02
1.315999984741210938e+01,2.341709594726562500e+02
1.319999980926513672e+01,2.331566925048828125e+02
1.323999977111816406e+01,2.320195617675781250e+02
1.327999973297119141e+01,2.305447692871093750e+02
1.331999969482421875e+01,2.269726104736328125e+02
1.335999965667724609e+01,2.255294189453125000e+02
1.340000057220458984e+01,2.245070800781250000e+02
1.344000053405761719e+01,2.238393554687500000e+02
1.348000049591064453e+01,2.231712341308593750e+02
1.352000045776367188e+01,2.225029296875000000e+02
1.356000041961669922e+01,2.218344726562500000e+02
1.360000038146972656e+01,2.211137390136718750e+02
1.364000034332275391e+01,2.203412322998046875e+02
1.368000030517578125e+01,2.195679016113281250e+02
1.372000026702880859e+01,2.187933197021484375e+02
1.376000022888183594e+01,2.180184631347656250e+02
1.380000019073486328e+01,2.171780090332031250e+02
1.384000015258789062e+01,2.155248718261718750e+02
1.388000011444091797e+01,2.146117248535156250e+02
1.392000007629394531e+01,2.140751647949218750e+02
1.396000003814697266e+01,2.135397644042968750e+02
1.400000000000000000e+01,2.130590820312500000e+02
1.403999996185302734e+01,2.126330718994140625e+02
1.407999992370605469e+01,2.122065734863281250e+02
1.411999988555908203e+01,2.117781524658203125e+02
1.415999984741210938e+01,2.113493347167968750e+02
1.419999980926513672e+01,2.109198913574218750e+02
1.423999977111816406e+01,2.104898223876953125e+02
1.427999973297119141e+01,2.100593719482421875e+02
1.431999969482421875e+01,2.096297149658203125e+02
1.435999965667724609e+01,2.091997680664062500e+02
1.439999961853027344e+01,2.087454223632812500e+02
1.444000053405761719e+01,2.082601776123046875e+02
1.448000049591064453e+01,2.077751159667968750e+02
1.452000045776367188e+01,2.072895050048828125e+02
1.456000041961669922e+01,2.068036651611328125e+02
1.460000038146972656e+01,2.063088989257812500e+02
1.464000034332275391e+01,2.058050537109375000e+02
1.468000030517578125e+01,2.053011779785156250e+02
1.472000026702880859e+01,2.047966766357421875e+02
1.476000022888183594e+01,2.042920989990234375e+02
1.480000019073486328e+01,2.037818298339843750e+02
1.484000015258789062e+01,2.032657165527343750e+02
1.488000011444091797e+01,2.027491760253906250e+02
1.492000007629394531e+01,2.022330017089843750e+02
1.496000003814697266e+01,2.017167663574218750e+02
1.500000000000000000e+01,2.011952209472656250e+02
1.503999996185302734e+01,2.006682434082031250e+02
1.507999992370605469e+01,2.001411895751953125e+02
1.511999988555908203e+01,1.996144714355468750e+02
1.515999984741210938e+01,1.990877990722656250e+02
1.519999980926513672e+01,1.985542297363281250e+02
1.523999977111816406e+01,1.980137634277343750e+02
1.527999973297119141e+01,1.974732513427734375e+02
1.531999969482421875e+01,1.969322204589843750e+02
1.535999965667724609e+01,1.963911743164062500e+02
1.539999961853027344e+01,1.958490295410156250e+02
1.544000053405761719e+01,1.953058166503906250e+02
1.548000049591064453e+01,1.947626190185546875e+02
1.552000045776367188e+01,1.942196350097656250e+02
1.556000041961669922e+01,1.936765441894531250e+02
1.560000038146972656e+01,1.931416320800781250e+02
1.564000034332275391e+01,1.926148376464843750e+02
1.568000030517578125e+01,1.920879211425781250e+02
1.572000026702880859e+01,1.916715240478515625e+02
1.576000022888183594e+01,1.912561187744140625e+02
1.580000019073486328e+01,1.908300170898437500e+02
1.584000015258789062e+01,1.903931121826171875e+02
1.588000011444091797e+01,1.899518737792968750e+02
1.592000007629394531e+01,1.895099029541015625e+02
1.596000003814697266e+01,1.890673217773437500e+02
1.600000000000000000e+01,1.886252899169921875e+02
1.603999900817871094e+01,1.881837310791015625e+02
1.607999992370605469e+01,1.877415771484375000e+02
1.611999893188476562e+01,1.872988586425781250e+02
1.615999984741210938e+01,1.868554992675781250e+02
1.619999885559082031e+01,1.864116210937500000e+02
1.623999977111816406e+01,1.859670715332031250e+02
1.627999877929687500e+01,1.855220336914062500e+02
1.631999969482421875e+01,1.850763549804687500e+02
1.635999870300292969e+01,1.846301574707031250e+02
1.639999961853027344e+01,1.841834411621093750e+02
1.643999862670898438e+01,1.837362365722656250e+02
1.647999954223632812e+01,1.832883605957031250e+02
1.652000045776367188e+01,1.828483276367187500e+02
1.655999946594238281e+01,1.824078826904296875e+02
1.660000038146972656e+01,1.819669494628906250e+02
1.663999938964843750e+01,1.815254364013671875e+02
1.668000030517578125e+01,1.810834503173828125e+02
1.671999931335449219e+01,1.806410217285156250e+02
1.676000022888183594e+01,1.801980285644531250e+02
1.679999923706054688e+01,1.797545471191406250e+02
1.684000015258789062e+01,1.793105468750000000e+02
1.687999916076660156e+01,1.788660583496093750e+02
1.692000007629394531e+01,1.784210510253906250e+02
1.695999908447265625e+01,1.779756622314453125e+02
1.700000000000000000e+01,1.775436096191406250e+02
1.703999900817871094e+01,1.771247711181640625e+02
1.707999992370605469e+01,1.767055969238281250e+02
1.711999893188476562e+01,1.762861938476562500e+02
1.715999984741210938e+01,1.758664245605468750e+02
1.719999885559082031e+01,1.754464416503906250e+02
1.723999977111816406e+01,1.750261535644531250e+02
1.727999877929687500e+01,1.746077575683593750e+02
1.731999969482421875e+01,1.741896362304687500e+02
1.735999870300292969e+01,1.737713623046875000e+02
1.739999961853027344e+01,1.733527069091796875e+02
1.743999862670898438e+01,1.729330902099609375e+02
1.747999954223632812e+01,1.725111999511718750e+02
