# Start of Energy Bin (keV), Effective Area (cm^2)
1.600000023841857910e+00,8.310487270355224609e-01
1.639999985694885254e+00,1.155593395233154297e+00
1.680000066757202148e+00,1.600879669189453125e+00
1.720000028610229492e+00,2.209992885589599609e+00
1.759999990463256836e+00,2.996556758880615234e+00
1.799999952316284180e+00,3.783778190612792969e+00
1.840000033378601074e+00,2.102474927902221680e+00
1.879999995231628418e+00,2.684119224548339844e+00
1.920000076293945312e+00,3.501548290252685547e+00
1.960000038146972656e+00,4.414776802062988281e+00
2.000000000000000000e+00,5.463128566741943359e+00
2.039999961853027344e+00,6.698306083679199219e+00
2.079999923706054688e+00,8.200839996337890625e+00
2.119999885559082031e+00,7.469101905822753906e+00
2.160000085830688477e+00,8.679026603698730469e+00
2.200000047683715820e+00,9.059061050415039062e+00
2.240000009536743164e+00,1.037994289398193359e+01
2.279999971389770508e+00,1.192598915100097656e+01
2.319999933242797852e+00,1.382614803314208984e+01
2.360000133514404297e+00,1.567268657684326172e+01
2.400000095367431641e+00,1.744490623474121094e+01
2.440000057220458984e+00,1.945241165161132812e+01
2.480000019073486328e+00,2.179861068725585938e+01
2.519999980926513672e+00,2.462473106384277344e+01
2.559999942779541016e+00,2.773185729980468750e+01
2.599999904632568359e+00,3.055078125000000000e+01
2.639999866485595703e+00,3.114634895324707031e+01
2.679999828338623047e+00,3.397346496582031250e+01
2.720000028610229492e+00,3.701948928833007812e+01
2.759999990463256836e+00,4.031521224975585938e+01
2.799999952316284180e+00,4.386591339111328125e+01
2.840000152587890625e+00,4.753561019897460938e+01
2.880000114440917969e+00,5.070090103149414062e+01
2.920000076293945312e+00,5.401571655273437500e+01
2.960000038146972656e+00,5.752769470214843750e+01
3.000000000000000000e+00,6.136341857910156250e+01
3.039999961853027344e+00,6.367779922485351562e+01
3.079999923706054688e+00,6.765016174316406250e+01
3.119999885559082031e+00,7.177873229980468750e+01
3.159999847412109375e+00,7.524485778808593750e+01
3.199999809265136719e+00,7.883180236816406250e+01
3.240000009536743164e+00,8.254527282714843750e+01
3.279999971389770508e+00,8.524149322509765625e+01
3.319999933242797852e+00,8.974759674072265625e+01
3.360000133514404297e+00,9.445688629150390625e+01
3.400000095367431641e+00,9.936295318603515625e+01
3.440000057220458984e+00,1.032800674438476562e+02
3.480000019073486328e+00,1.061853637695312500e+02
3.519999980926513672e+00,1.023766632080078125e+02
3.559999942779541016e+00,1.052617492675781250e+02
3.599999904632568359e+00,1.082573242187500000e+02
3.639999866485595703e+00,1.112968444824218750e+02
3.679999828338623047e+00,1.143844528198242188e+02
3.719999790191650391e+00,1.139825668334960938e+02
3.759999752044677734e+00,1.171662673950195312e+02
3.800000190734863281e+00,1.199586334228515625e+02
3.840000152587890625e+00,1.224804534912109375e+02
3.880000114440917969e+00,1.250115051269531250e+02
3.920000076293945312e+00,1.281477355957031250e+02
3.960000038146972656e+00,1.315201721191406250e+02
4.000000000000000000e+00,1.330085754394531250e+02
4.039999961853027344e+00,1.363128967285156250e+02
4.079999923706054688e+00,1.396579742431640625e+02
4.119999885559082031e+00,1.430447692871093750e+02
4.159999847412109375e+00,1.464346618652343750e+02
4.199999809265136719e+00,1.493461456298828125e+02
4.239999771118164062e+00,1.522751770019531250e+02
4.279999732971191406e+00,1.552294006347656250e+02
4.320000171661376953e+00,1.516760101318359375e+02
4.360000133514404297e+00,1.523063964843750000e+02
4.400000095367431641e+00,1.548727264404296875e+02
4.440000057220458984e+00,1.574562377929687500e+02
4.480000019073486328e+00,1.600709838867187500e+02
4.519999980926513672e+00,1.627058715820312500e+02
4.559999942779541016e+00,1.653390197753906250e+02
4.599999904632568359e+00,1.631170349121093750e+02
4.639999866485595703e+00,1.655126647949218750e+02
4.679999828338623047e+00,1.676813964843750000e+02
4.719999790191650391e+00,1.698504943847656250e+02
4.759999752044677734e+00,1.720216827392578125e+02
4.799999713897705078e+00,1.741950988769531250e+02
4.840000152587890625e+00,1.763594818115234375e+02
4.880000114440917969e+00,1.785209350585937500e+02
4.920000076293945312e+00,1.784343261718750000e+02
4.960000038146972656e+00,1.805896453857421875e+02
5.000000000000000000e+00,1.826976165771484375e+02
5.039999961853027344e+00,1.849092407226562500e+02
5.079999923706054688e+00,1.869791717529296875e+02
5.119999885559082031e+00,1.890556640625000000e+02
5.159999847412109375e+00,1.911276855468750000e+02
5.199999809265136719e+00,1.931926574707031250e+02
5.239999771118164062e+00,1.952524719238281250e+02
5.279999732971191406e+00,1.973128356933593750e+02
5.320000171661376953e+00,1.993666992187500000e+02
5.360000133514404297e+00,2.014208984375000000e+02
5.400000095367431641e+00,2.034714202880859375e+02
5.440000057220458984e+00,2.055160522460937500e+02
5.480000019073486328e+00,2.075592346191406250e+02
5.519999980926513672e+00,2.096011047363281250e+02
5.559999942779541016e+00,2.114967956542968750e+02
5.599999904632568359e+00,2.132380065917968750e+02
5.639999866485595703e+00,2.149729919433593750e+02
5.679999828338623047e+00,2.167035064697265625e+02
5.719999790191650391e+00,2.184304656982421875e+02
5.759999752044677734e+00,2.201531524658203125e+02
5.799999713897705078e+00,2.218534698486328125e+02
5.839999675750732422e+00,2.235326995849609375e+02
5.879999637603759766e+00,2.252072601318359375e+02
5.919999599456787109e+00,2.268774566650390625e+02
5.960000038146972656e+00,2.285428924560546875e+02
6.000000000000000000e+00,2.300782165527343750e+02
6.039999961853027344e+00,2.314804992675781250e+02
6.079999923706054688e+00,2.328758239746093750e+02
6.119999885559082031e+00,2.341521301269531250e+02
6.159999847412109375e+00,2.353453216552734375e+02
6.199999809265136719e+00,2.365396270751953125e+02
6.239999771118164062e+00,2.377356567382812500e+02
6.279999732971191406e+00,2.389245452880859375e+02
6.319999694824218750e+00,2.401064910888671875e+02
6.359999656677246094e+00,2.412811431884765625e+02
6.399999618530273438e+00,2.424434967041015625e+02
6.439999580383300781e+00,2.435937652587890625e+02
6.480000019073486328e+00,2.447373046875000000e+02
6.519999980926513672e+00,2.458744354248046875e+02
6.559999942779541016e+00,2.470052185058593750e+02
6.599999904632568359e+00,2.481246643066406250e+02
6.639999866485595703e+00,2.492328491210937500e+02
6.679999828338623047e+00,2.503350067138671875e+02
6.719999790191650391e+00,2.513796386718750000e+02
6.759999752044677734e+00,2.523101654052734375e+02
6.799999713897705078e+00,2.532238006591796875e+02
6.839999675750732422e+00,2.541210021972656250e+02
6.879999637603759766e+00,2.550118865966796875e+02
6.919999599456787109e+00,2.558973693847656250e+02
6.959999561309814453e+00,2.567767639160156250e+02
7.000000000000000000e+00,2.575994873046875000e+02
7.039999961853027344e+00,2.583650817871093750e+02
7.079999923706054688e+00,2.591259765625000000e+02
7.119999885559082031e+00,2.585046386718750000e+02
7.159999847412109375e+00,2.592399902343750000e+02
7.199999809265136719e+00,2.599817504882812500e+02
7.239999771118164062e+00,2.607310180664062500e+02
7.279999732971191406e+00,2.614747009277343750e+02
7.319999694824218750e+00,2.622139892578125000e+02
7.359999656677246094e+00,2.629477539062500000e+02
7.399999618530273438e+00,2.636659240722656250e+02
7.439999580383300781e+00,2.643684997558593750e+02
7.479999542236328125e+00,2.650661315917968750e+02
7.519999980926513672e+00,2.657573547363281250e+02
7.559999942779541016e+00,2.664435729980468750e+02
7.599999904632568359e+00,2.671158142089843750e+02
7.639999866485595703e+00,2.677738342285156250e+02
7.679999828338623047e+00,2.684273376464843750e+02
7.719999790191650391e+00,2.690775451660156250e+02
7.759999752044677734e+00,2.697237548828125000e+02
7.799999713897705078e+00,2.703564758300781250e+02
7.839999675750732422e+00,2.709748840332031250e+02
7.879999637603759766e+00,2.715890808105468750e+02
7.919999599456787109e+00,2.722072143554687500e+02
7.959999561309814453e+00,2.728211059570312500e+02
7.999999523162841797e+00,2.733920288085937500e+02
8.039999961853027344e+00,2.739199829101562500e+02
8.079999923706054688e+00,2.744440002441406250e+02
8.119999885559082031e+00,2.749551086425781250e+02
8.159999847412109375e+00,2.753880615234375000e+02
8.199999809265136719e+00,2.757969360351562500e+02
8.239999771118164062e+00,2.762087402343750000e+02
8.279999732971191406e+00,2.766968383789062500e+02
8.319999694824218750e+00,2.771947326660156250e+02
8.359999656677246094e+00,2.776891174316406250e+02
8.399999618530273438e+00,2.781496887207031250e+02
8.439999580383300781e+00,2.785770874023437500e+02
8.479999542236328125e+00,2.790008850097656250e+02
8.520000457763671875e+00,2.794095153808593750e+02
8.560000419616699219e+00,2.798145446777343750e+02
8.600000381469726562e+00,2.801709594726562500e+02
8.640000343322753906e+00,2.804782714843750000e+02
8.680000305175781250e+00,2.807819213867187500e+02
8.720000267028808594e+00,2.810903015136718750e+02
8.760000228881835938e+00,2.813951721191406250e+02
8.800000190734863281e+00,2.816417236328125000e+02
8.840000152587890625e+00,2.818298950195312500e+02
8.880000114440917969e+00,2.820141906738281250e+02
8.920000076293945312e+00,2.822004089355468750e+02
8.960000038146972656e+00,2.823418884277343750e+02
9.000000000000000000e+00,2.823995971679687500e+02
9.039999961853027344e+00,2.823962402343750000e+02
9.079999923706054688e+00,2.823890075683593750e+02
9.119999885559082031e+00,2.823937377929687500e+02
9.159999847412109375e+00,2.824922180175781250e+02
9.199999809265136719e+00,2.825301208496093750e+02
9.239999771118164062e+00,2.825071105957031250e+02
9.279999732971191406e+00,2.824800720214843750e+02
9.319999694824218750e+00,2.824722290039062500e+02
9.359999656677246094e+00,2.824603271484375000e+02
9.399999618530273438e+00,2.823814392089843750e+02
9.439999580383300781e+00,2.822354736328125000e+02
9.479999542236328125e+00,2.820854492187500000e+02
9.519999504089355469e+00,2.819222412109375000e+02
9.560000419616699219e+00,2.817553100585937500e+02
9.600000381469726562e+00,2.813688964843750000e+02
9.640000343322753906e+00,2.808283996582031250e+02
9.680000305175781250e+00,2.804805603027343750e+02
9.720000267028808594e+00,2.801372070312500000e+02
9.760000228881835938e+00,2.797897338867187500e+02
9.800000190734863281e+00,2.790343322753906250e+02
9.840000152587890625e+00,2.778624877929687500e+02
9.880000114440917969e+00,2.766600646972656250e+02
9.920000076293945312e+00,2.754779663085937500e+02
9.960000038146972656e+00,2.746675109863281250e+02
1.000000000000000000e+01,2.711843872070312500e+02
1.003999996185302734e+01,2.647581787109375000e+02
1.007999992370605469e+01,2.583221130371093750e+02
1.011999988555908203e+01,2.518383789062500000e+02
1.015999984741210938e+01,2.453485107421875000e+02
1.019999980926513672e+01,2.382250518798828125e+02
1.023999977111816406e+01,2.384097595214843750e+02
1.027999973297119141e+01,2.385862426757812500e+02
1.032000064849853516e+01,2.387795104980468750e+02
1.036000061035156250e+01,2.389650268554687500e+02
1.040000057220458984e+01,2.400341796875000000e+02
1.044000053405761719e+01,2.416453247070312500e+02
1.048000049591064453e+01,2.421928710937500000e+02
1.052000045776367188e+01,2.427463378906250000e+02
1.056000041961669922e+01,2.432950286865234375e+02
1.060000038146972656e+01,2.432644348144531250e+02
1.064000034332275391e+01,2.426575317382812500e+02
1.068000030517578125e+01,2.420488281250000000e+02
1.072000026702880859e+01,2.414199066162109375e+02
1.076000022888183594e+01,2.407896423339843750e+02
1.080000019073486328e+01,2.400479278564453125e+02
1.084000015258789062e+01,2.391788177490234375e+02
1.088000011444091797e+01,2.383013153076171875e+02
1.092000007629394531e+01,2.374043884277343750e+02
1.096000003814697266e+01,2.365075988769531250e+02
1.100000000000000000e+01,2.355068054199218750e+02
1.103999996185302734e+01,2.344024200439453125e+02
1.107999992370605469e+01,2.332993469238281250e+02
1.111999988555908203e+01,2.331235961914062500e+02
1.115999984741210938e+01,2.329456329345703125e+02
1.119999980926513672e+01,2.322731933593750000e+02
1.123999977111816406e+01,2.311051025390625000e+02
1.127999973297119141e+01,2.299330902099609375e+02
1.131999969482421875e+01,2.287643890380859375e+02
1.136000061035156250e+01,2.275919952392578125e+02
1.140000057220458984e+01,2.252829589843750000e+02
1.144000053405761719e+01,2.218334350585937500e+02
1.148000049591064453e+01,2.183744201660156250e+02
1.152000045776367188e+01,2.147233276367187500e+02
1.156000041961669922e+01,2.052719421386718750e+02
1.160000038146972656e+01,2.025628814697265625e+02
1.164000034332275391e+01,2.017827453613281250e+02
1.168000030517578125e+01,2.009969177246093750e+02
1.172000026702880859e+01,2.001736602783203125e+02
1.176000022888183594e+01,1.993422698974609375e+02
1.180000019073486328e+01,1.984426879882812500e+02
1.184000015258789062e+01,1.974787139892578125e+02
1.188000011444091797e+01,1.965144042968750000e+02
1.192000007629394531e+01,1.955630645751953125e+02
1.196000003814697266e+01,1.946049652099609375e+02
1.200000000000000000e+01,1.935027008056640625e+02
1.203999996185302734e+01,1.922570953369140625e+02
1.207999992370605469e+01,1.913787231445312500e+02
1.211999988555908203e+01,1.915584411621093750e+02
1.215999984741210938e+01,1.917371063232421875e+02
1.219999980926513672e+01,1.918478088378906250e+02
1.223999977111816406e+01,1.918902740478515625e+02
1.227999973297119141e+01,1.919317321777343750e+02
1.231999969482421875e+01,1.919706878662109375e+02
1.236000061035156250e+01,1.920088195800781250e+02
1.240000057220458984e+01,1.919370727539062500e+02
1.244000053405761719e+01,1.917560882568359375e+02
1.248000049591064453e+01,1.915740509033203125e+02
1.252000045776367188e+01,1.914004516601562500e+02
1.256000041961669922e+01,1.912261810302734375e+02
1.260000038146972656e+01,1.909855499267578125e+02
1.264000034332275391e+01,1.906788482666015625e+02
1.268000030517578125e+01,1.903715667724609375e+02
1.272000026702880859e+01,1.900562591552734375e+02
1.276000022888183594e+01,1.897402191162109375e+02
1.280000019073486328e+01,1.893792114257812500e+02
1.284000015258789062e+01,1.889732971191406250e+02
1.288000011444091797e+01,1.885675048828125000e+02
1.292000007629394531e+01,1.881530761718750000e+02
1.296000003814697266e+01,1.877382354736328125e+02
1.300000000000000000e+01,1.871229553222656250e+02
1.303999996185302734e+01,1.863079223632812500e+02
1.307999992370605469e+01,1.854938507080078125e+02
1.311999988555908203e+01,1.846744384765625000e+02
1.315999984741210938e+01,1.838534698486328125e+02
1.319999980926513672e+01,1.829174804687500000e+02
1.323999977111816406e+01,1.818676452636718750e+02
1.327999973297119141e+01,1.806990661621093750e+02
1.331999969482421875e+01,1.778881988525390625e+02
1.335999965667724609e+01,1.767922515869140625e+02
1.340000057220458984e+01,1.760152587890625000e+02
1.344000053405761719e+01,1.754902954101562500e+02
1.348000049591064453e+01,1.749649810791015625e+02
1.352000045776367188e+01,1.744482116699218750e+02
1.356000041961669922e+01,1.739312744140625000e+02
1.360000038146972656e+01,1.733542480468750000e+02
1.364000034332275391e+01,1.727177429199218750e+02
1.368000030517578125e+01,1.720807342529296875e+02
1.372000026702880859e+01,1.714553527832031250e+02
1.376000022888183594e+01,1.708298187255859375e+02
1.380000019073486328e+01,1.701533813476562500e+02
1.384000015258789062e+01,1.688408050537109375e+02
1.388000011444091797e+01,1.681420135498046875e+02
1.392000007629394531e+01,1.677373352050781250e+02
1.396000003814697266e+01,1.673334960937500000e+02
1.400000000000000000e+01,1.669673461914062500e+02
1.403999996185302734e+01,1.666388854980468750e+02
1.407999992370605469e+01,1.663100280761718750e+02
1.411999988555908203e+01,1.659811248779296875e+02
1.415999984741210938e+01,1.656518554687500000e+02
1.419999980926513672e+01,1.653190460205078125e+02
1.423999977111816406e+01,1.649827117919921875e+02
1.427999973297119141e+01,1.646459960937500000e+02
1.431999969482421875e+01,1.643088836669921875e+02
1.435999965667724609e+01,1.639715118408203125e+02
1.439999961853027344e+01,1.636158294677734375e+02
1.444000053405761719e+01,1.632367553710937500e+02
1.448000049591064453e+01,1.628578033447265625e+02
1.452000045776367188e+01,1.624715118408203125e+02
1.456000041961669922e+01,1.620850830078125000e+02
1.460000038146972656e+01,1.616945648193359375e+02
1.464000034332275391e+01,1.612998809814453125e+02
1.468000030517578125e+01,1.609051666259765625e+02
1.472000026702880859e+01,1.605490112304687500e+02
1.476000022888183594e+01,1.601926269531250000e+02
1.480000019073486328e+01,1.598334960937500000e+02
1.484000015258789062e+01,1.594714965820312500e+02
1.488000011444091797e+01,1.591089477539062500e+02
1.492000007629394531e+01,1.587124481201171875e+02
1.496000003814697266e+01,1.583158874511718750e+02
1.500000000000000000e+01,1.579187164306640625e+02
1.503999996185302734e+01,1.575208282470703125e+02
1.507999992370605469e+01,1.571228179931640625e+02
1.511999988555908203e+01,1.567273864746093750e+02
1.515999984741210938e+01,1.563319091796875000e+02
1.519999980926513672e+01,1.559318237304687500e+02
1.523999977111816406e+01,1.555270996093750000e+02
1.527999973297119141e+01,1.551222534179687500e+02
1.531999969482421875e+01,1.547242584228515625e+02
1.535999965667724609e+01,1.543261108398437500e+02
1.539999961853027344e+01,1.539283905029296875e+02
1.544000053405761719e+01,1.535310974121093750e+02
1.548000049591064453e+01,1.531336975097656250e+02
1.552000045776367188e+01,1.527293701171875000e+02
1.556000041961669922e+01,1.523249053955078125e+02
1.560000038146972656e+01,1.519293212890625000e+02
1.564000034332275391e+01,1.515426025390625000e+02
1.568000030517578125e+01,1.511556701660156250e+02
1.572000026702880859e+01,1.507946166992187500e+02
1.576000022888183594e+01,1.504338226318359375e+02
1.580000019073486328e+01,1.500648040771484375e+02
1.584000015258789062e+01,1.496874694824218750e+02
1.588000011444091797e+01,1.493068695068359375e+02
1.592000007629394531e+01,1.489580688476562500e+02
1.596000003814697266e+01,1.486087951660156250e+02
1.600000000000000000e+01,1.482599182128906250e+02
1.603999900817871094e+01,1.479113922119140625e+02
1.607999992370605469e+01,1.475624084472656250e+02
1.611999893188476562e+01,1.471951141357421875e+02
1.615999984741210938e+01,1.468274078369140625e+02
1.619999885559082031e+01,1.464593811035156250e+02
1.623999977111816406e+01,1.460909576416015625e+02
1.627999877929687500e+01,1.457222290039062500e+02
1.631999969482421875e+01,1.453590545654296875e+02
1.635999870300292969e+01,1.449955596923828125e+02
1.639999961853027344e+01,1.446317138671875000e+02
1.643999862670898438e+01,1.442675323486328125e+02
1.647999954223632812e+01,1.439028930664062500e+02
1.652000045776367188e+01,1.435413513183593750e+02
1.655999946594238281e+01,1.431795349121093750e+02
1.660000038146972656e+01,1.428174285888671875e+02
1.663999938964843750e+01,1.424549713134765625e+02
1.668000030517578125e+01,1.420921936035156250e+02
1.671999931335449219e+01,1.417294006347656250e+02
1.676000022888183594e+01,1.413662261962890625e+02
1.679999923706054688e+01,1.410027465820312500e+02
1.684000015258789062e+01,1.406389465332031250e+02
1.687999916076660156e+01,1.402748413085937500e+02
1.692000007629394531e+01,1.399163055419921875e+02
1.695999908447265625e+01,1.395574798583984375e+02
1.700000000000000000e+01,1.392059631347656250e+02
1.703999900817871094e+01,1.388616180419921875e+02
1.707999992370605469e+01,1.385170745849609375e+02
1.711999893188476562e+01,1.381626892089843750e+02
1.715999984741210938e+01,1.378081054687500000e+02
1.719999885559082031e+01,1.374534759521484375e+02
1.723999977111816406e+01,1.370986938476562500e+02
1.727999877929687500e+01,1.367072601318359375e+02
1.731999969482421875e+01,1.363038024902343750e+02
1.735999870300292969e+01,1.359005737304687500e+02
1.739999961853027344e+01,1.354974365234375000e+02
1.743999862670898438e+01,1.350939178466796875e+02
1.747999954223632812e+01,1.346890258789062500e+02
