# Start of Energy Bin (keV), Effective Area (cm^2)
1.600000023841857910e+00,8.783878087997436523e-01
1.639999985694885254e+00,1.200224637985229492e+00
1.680000066757202148e+00,1.635963082313537598e+00
1.720000028610229492e+00,2.224712610244750977e+00
1.759999990463256836e+00,2.974536895751953125e+00
1.799999952316284180e+00,3.706510066986083984e+00
1.840000033378601074e+00,2.033977031707763672e+00
1.879999995231628418e+00,2.567929029464721680e+00
1.920000076293945312e+00,3.316689968109130859e+00
1.960000038146972656e+00,4.142903804779052734e+00
2.000000000000000000e+00,5.082454204559326172e+00
2.039999961853027344e+00,6.181809425354003906e+00
2.079999923706054688e+00,7.512297630310058594e+00
2.119999885559082031e+00,6.706817150115966797e+00
2.160000085830688477e+00,7.743259429931640625e+00
2.200000047683715820e+00,7.995605468750000000e+00
2.240000009536743164e+00,9.104691505432128906e+00
2.279999971389770508e+00,1.039985752105712891e+01
2.319999933242797852e+00,1.199155426025390625e+01
2.360000133514404297e+00,1.352284622192382812e+01
2.400000095367431641e+00,1.497857475280761719e+01
2.440000057220458984e+00,1.662767601013183594e+01
2.480000019073486328e+00,1.855897331237792969e+01
2.519999980926513672e+00,2.089462852478027344e+01
2.559999942779541016e+00,2.345615577697753906e+01
2.599999904632568359e+00,2.576210594177246094e+01
2.639999866485595703e+00,2.610846138000488281e+01
2.679999828338623047e+00,2.840115356445312500e+01
2.720000028610229492e+00,3.086823844909667969e+01
2.759999990463256836e+00,3.353511428833007812e+01
2.799999952316284180e+00,3.640437316894531250e+01
2.840000152587890625e+00,3.936314773559570312e+01
2.880000114440917969e+00,4.189685058593750000e+01
2.920000076293945312e+00,4.454669189453125000e+01
2.960000038146972656e+00,4.735327911376953125e+01
3.000000000000000000e+00,5.041066741943359375e+01
3.039999961853027344e+00,5.213484573364257812e+01
3.079999923706054688e+00,5.526543426513671875e+01
3.119999885559082031e+00,5.851378631591796875e+01
3.159999847412109375e+00,6.121372985839843750e+01
3.199999809265136719e+00,6.400498199462890625e+01
3.240000009536743164e+00,6.689170837402343750e+01
3.279999971389770508e+00,6.890631103515625000e+01
3.319999933242797852e+00,7.256127929687500000e+01
3.360000133514404297e+00,7.638572692871093750e+01
3.400000095367431641e+00,8.037312316894531250e+01
3.440000057220458984e+00,8.346741485595703125e+01
3.480000019073486328e+00,8.570961761474609375e+01
3.519999980926513672e+00,8.579621124267578125e+01
3.559999942779541016e+00,8.806786346435546875e+01
3.599999904632568359e+00,9.038686370849609375e+01
3.639999866485595703e+00,9.273064422607421875e+01
3.679999828338623047e+00,9.510652923583984375e+01
3.719999790191650391e+00,9.635008239746093750e+01
3.759999752044677734e+00,9.879769134521484375e+01
3.800000190734863281e+00,1.009255218505859375e+02
3.840000152587890625e+00,1.028146133422851562e+02
3.880000114440917969e+00,1.047094268798828125e+02
3.920000076293945312e+00,1.071308288574218750e+02
3.960000038146972656e+00,1.097566146850585938e+02
4.000000000000000000e+00,1.117462463378906250e+02
4.039999961853027344e+00,1.143174743652343750e+02
4.079999923706054688e+00,1.169222335815429688e+02
4.119999885559082031e+00,1.195613632202148438e+02
4.159999847412109375e+00,1.222010116577148438e+02
4.199999809265136719e+00,1.244399719238281250e+02
4.239999771118164062e+00,1.266922760009765625e+02
4.279999732971191406e+00,1.289631500244140625e+02
4.320000171661376953e+00,1.290919647216796875e+02
4.360000133514404297e+00,1.304219055175781250e+02
4.400000095367431641e+00,1.323457946777343750e+02
4.440000057220458984e+00,1.342779998779296875e+02
4.480000019073486328e+00,1.362242279052734375e+02
4.519999980926513672e+00,1.381812438964843750e+02
4.559999942779541016e+00,1.401425323486328125e+02
4.599999904632568359e+00,1.403191223144531250e+02
4.639999866485595703e+00,1.419529876708984375e+02
4.679999828338623047e+00,1.435113677978515625e+02
4.719999790191650391e+00,1.450708007812500000e+02
4.759999752044677734e+00,1.466318664550781250e+02
4.799999713897705078e+00,1.481904449462890625e+02
4.840000152587890625e+00,1.497432250976562500e+02
4.880000114440917969e+00,1.512944946289062500e+02
4.920000076293945312e+00,1.520965881347656250e+02
4.960000038146972656e+00,1.536498107910156250e+02
5.000000000000000000e+00,1.551643218994140625e+02
5.039999961853027344e+00,1.567690887451171875e+02
5.079999923706054688e+00,1.582567291259765625e+02
5.119999885559082031e+00,1.597425689697265625e+02
5.159999847412109375e+00,1.612264099121093750e+02
5.199999809265136719e+00,1.627056121826171875e+02
5.239999771118164062e+00,1.641814880371093750e+02
5.279999732971191406e+00,1.656576995849609375e+02
5.320000171661376953e+00,1.671353607177734375e+02
5.360000133514404297e+00,1.686137695312500000e+02
5.400000095367431641e+00,1.700898895263671875e+02
5.440000057220458984e+00,1.715625915527343750e+02
5.480000019073486328e+00,1.730357360839843750e+02
5.519999980926513672e+00,1.745099182128906250e+02
5.559999942779541016e+00,1.758637542724609375e+02
5.599999904632568359e+00,1.770912170410156250e+02
5.639999866485595703e+00,1.783156127929687500e+02
5.679999828338623047e+00,1.795380249023437500e+02
5.719999790191650391e+00,1.807586212158203125e+02
5.759999752044677734e+00,1.819770355224609375e+02
5.799999713897705078e+00,1.831782226562500000e+02
5.839999675750732422e+00,1.843631134033203125e+02
5.879999637603759766e+00,1.855462188720703125e+02
5.919999599456787109e+00,1.867277984619140625e+02
5.960000038146972656e+00,1.879074554443359375e+02
6.000000000000000000e+00,1.889829711914062500e+02
6.039999961853027344e+00,1.899521789550781250e+02
6.079999923706054688e+00,1.909177398681640625e+02
6.119999885559082031e+00,1.917880249023437500e+02
6.159999847412109375e+00,1.925926208496093750e+02
6.199999809265136719e+00,1.934004516601562500e+02
6.239999771118164062e+00,1.942111968994140625e+02
6.279999732971191406e+00,1.950180969238281250e+02
6.319999694824218750e+00,1.958212890625000000e+02
6.359999656677246094e+00,1.966204681396484375e+02
6.399999618530273438e+00,1.974114837646484375e+02
6.439999580383300781e+00,1.981944885253906250e+02
6.480000019073486328e+00,1.989735107421875000e+02
6.519999980926513672e+00,1.997492370605468750e+02
6.559999942779541016e+00,2.005213470458984375e+02
6.599999904632568359e+00,2.012859802246093750e+02
6.639999866485595703e+00,2.020429992675781250e+02
6.679999828338623047e+00,2.027969512939453125e+02
6.719999790191650391e+00,2.035057983398437500e+02
6.759999752044677734e+00,2.041243133544921875e+02
6.799999713897705078e+00,2.047305297851562500e+02
6.839999675750732422e+00,2.053247070312500000e+02
6.879999637603759766e+00,2.059156036376953125e+02
6.919999599456787109e+00,2.065030822753906250e+02
6.959999561309814453e+00,2.070872039794921875e+02
7.000000000000000000e+00,2.076387634277343750e+02
7.039999961853027344e+00,2.081574096679687500e+02
7.079999923706054688e+00,2.086738281250000000e+02
7.119999885559082031e+00,2.080802001953125000e+02
7.159999847412109375e+00,2.085809326171875000e+02
7.199999809265136719e+00,2.090873718261718750e+02
7.239999771118164062e+00,2.095995788574218750e+02
7.279999732971191406e+00,2.101089172363281250e+02
7.319999694824218750e+00,2.106171112060546875e+02
7.359999656677246094e+00,2.111222076416015625e+02
7.399999618530273438e+00,2.116156005859375000e+02
7.439999580383300781e+00,2.120969238281250000e+02
7.479999542236328125e+00,2.125759582519531250e+02
7.519999980926513672e+00,2.130487365722656250e+02
7.559999942779541016e+00,2.135189361572265625e+02
7.599999904632568359e+00,2.139779205322265625e+02
7.639999866485595703e+00,2.144256439208984375e+02
7.679999828338623047e+00,2.148707122802734375e+02
7.719999790191650391e+00,2.153170471191406250e+02
7.759999752044677734e+00,2.157613220214843750e+02
7.799999713897705078e+00,2.161935424804687500e+02
7.839999675750732422e+00,2.166135864257812500e+02
7.879999637603759766e+00,2.170316009521484375e+02
7.919999599456787109e+00,2.174472961425781250e+02
7.959999561309814453e+00,2.178607482910156250e+02
7.999999523162841797e+00,2.182252655029296875e+02
8.039999961853027344e+00,2.185404052734375000e+02
8.079999923706054688e+00,2.188533477783203125e+02
8.119999885559082031e+00,2.191766052246093750e+02
8.159999847412109375e+00,2.194381866455078125e+02
8.199999809265136719e+00,2.196760406494140625e+02
8.239999771118164062e+00,2.199149627685546875e+02
8.279999732971191406e+00,2.202270965576171875e+02
8.319999694824218750e+00,2.205228729248046875e+02
8.359999656677246094e+00,2.208167419433593750e+02
8.399999618530273438e+00,2.210764923095703125e+02
8.439999580383300781e+00,2.213022003173828125e+02
8.479999542236328125e+00,2.215255279541015625e+02
8.520000457763671875e+00,2.217491912841796875e+02
8.560000419616699219e+00,2.219707336425781250e+02
8.600000381469726562e+00,2.221490173339843750e+02
8.640000343322753906e+00,2.222838592529296875e+02
8.680000305175781250e+00,2.224163818359375000e+02
8.720000267028808594e+00,2.225472106933593750e+02
8.760000228881835938e+00,2.226761169433593750e+02
8.800000190734863281e+00,2.227584228515625000e+02
8.840000152587890625e+00,2.227939605712890625e+02
8.880000114440917969e+00,2.228274536132812500e+02
8.920000076293945312e+00,2.228583679199218750e+02
8.960000038146972656e+00,2.228546142578125000e+02
9.000000000000000000e+00,2.227879333496093750e+02
9.039999961853027344e+00,2.226759490966796875e+02
9.079999923706054688e+00,2.225615997314453125e+02
9.119999885559082031e+00,2.224630432128906250e+02
9.159999847412109375e+00,2.224513854980468750e+02
9.199999809265136719e+00,2.223962249755859375e+02
9.239999771118164062e+00,2.222976684570312500e+02
9.279999732971191406e+00,2.221962585449218750e+02
9.319999694824218750e+00,2.220935668945312500e+02
9.359999656677246094e+00,2.219880676269531250e+02
9.399999618530273438e+00,2.218338623046875000e+02
9.439999580383300781e+00,2.216310882568359375e+02
9.479999542236328125e+00,2.214256286621093750e+02
9.519999504089355469e+00,2.212445068359375000e+02
9.560000419616699219e+00,2.210608978271484375e+02
9.600000381469726562e+00,2.207653198242187500e+02
9.640000343322753906e+00,2.203780670166015625e+02
9.680000305175781250e+00,2.200486145019531250e+02
9.720000267028808594e+00,2.196906127929687500e+02
9.760000228881835938e+00,2.193298187255859375e+02
9.800000190734863281e+00,2.186352996826171875e+02
9.840000152587890625e+00,2.176004638671875000e+02
9.880000114440917969e+00,2.165425720214843750e+02
9.920000076293945312e+00,2.154833679199218750e+02
9.960000038146972656e+00,2.146938629150390625e+02
1.000000000000000000e+01,2.117475738525390625e+02
1.003999996185302734e+01,2.064578247070312500e+02
1.007999992370605469e+01,2.011728515625000000e+02
1.011999988555908203e+01,1.959048156738281250e+02
1.015999984741210938e+01,1.906425323486328125e+02
1.019999980926513672e+01,1.848865966796875000e+02
1.023999977111816406e+01,1.849990844726562500e+02
1.027999973297119141e+01,1.851055450439453125e+02
1.032000064849853516e+01,1.852020568847656250e+02
1.036000061035156250e+01,1.852929687500000000e+02
1.040000057220458984e+01,1.860839843750000000e+02
1.044000053405761719e+01,1.873093872070312500e+02
1.048000049591064453e+01,1.877097167968750000e+02
1.052000045776367188e+01,1.880984802246093750e+02
1.056000041961669922e+01,1.884833526611328125e+02
1.060000038146972656e+01,1.883992309570312500e+02
1.064000034332275391e+01,1.878484649658203125e+02
1.068000030517578125e+01,1.872970123291015625e+02
1.072000026702880859e+01,1.867442016601562500e+02
1.076000022888183594e+01,1.861907043457031250e+02
1.080000019073486328e+01,1.855476379394531250e+02
1.084000015258789062e+01,1.848024597167968750e+02
1.088000011444091797e+01,1.840516052246093750e+02
1.092000007629394531e+01,1.833131408691406250e+02
1.096000003814697266e+01,1.825750427246093750e+02
1.100000000000000000e+01,1.817530059814453125e+02
1.103999996185302734e+01,1.808474884033203125e+02
1.107999992370605469e+01,1.799434967041015625e+02
1.111999988555908203e+01,1.797498016357421875e+02
1.115999984741210938e+01,1.795546722412109375e+02
1.119999980926513672e+01,1.789617156982421875e+02
1.123999977111816406e+01,1.779703369140625000e+02
1.127999973297119141e+01,1.769772186279296875e+02
1.131999969482421875e+01,1.759792175292968750e+02
1.136000061035156250e+01,1.749798126220703125e+02
1.140000057220458984e+01,1.731159210205078125e+02
1.144000053405761719e+01,1.703857574462890625e+02
1.148000049591064453e+01,1.676510467529296875e+02
1.152000045776367188e+01,1.647766418457031250e+02
1.156000041961669922e+01,1.573299560546875000e+02
1.160000038146972656e+01,1.552214050292968750e+02
1.164000034332275391e+01,1.545903320312500000e+02
1.168000030517578125e+01,1.539551696777343750e+02
1.172000026702880859e+01,1.533066253662109375e+02
1.176000022888183594e+01,1.526521911621093750e+02
1.180000019073486328e+01,1.519284362792968750e+02
1.184000015258789062e+01,1.511388397216796875e+02
1.188000011444091797e+01,1.503494873046875000e+02
1.192000007629394531e+01,1.495543212890625000e+02
1.196000003814697266e+01,1.487548370361328125e+02
1.200000000000000000e+01,1.478443298339843750e+02
1.203999996185302734e+01,1.468238220214843750e+02
1.207999992370605469e+01,1.460972290039062500e+02
1.211999988555908203e+01,1.462262115478515625e+02
1.215999984741210938e+01,1.463543701171875000e+02
1.219999980926513672e+01,1.464260406494140625e+02
1.223999977111816406e+01,1.464408416748046875e+02
1.227999973297119141e+01,1.464549255371093750e+02
1.231999969482421875e+01,1.464778900146484375e+02
1.236000061035156250e+01,1.465000915527343750e+02
1.240000057220458984e+01,1.464343261718750000e+02
1.244000053405761719e+01,1.462809753417968750e+02
1.248000049591064453e+01,1.461268157958984375e+02
1.252000045776367188e+01,1.459616699218750000e+02
1.256000041961669922e+01,1.457960815429687500e+02
1.260000038146972656e+01,1.455788116455078125e+02
1.264000034332275391e+01,1.453097839355468750e+02
1.268000030517578125e+01,1.450406799316406250e+02
1.272000026702880859e+01,1.447709960937500000e+02
1.276000022888183594e+01,1.445010528564453125e+02
1.280000019073486328e+01,1.441968688964843750e+02
1.284000015258789062e+01,1.438583831787109375e+02
1.288000011444091797e+01,1.435202941894531250e+02
1.292000007629394531e+01,1.431823425292968750e+02
1.296000003814697266e+01,1.428441772460937500e+02
1.300000000000000000e+01,1.423588867187500000e+02
1.303999996185302734e+01,1.417270507812500000e+02
1.307999992370605469e+01,1.410960998535156250e+02
1.311999988555908203e+01,1.404658660888671875e+02
1.315999984741210938e+01,1.398346405029296875e+02
1.319999980926513672e+01,1.391184692382812500e+02
1.323999977111816406e+01,1.383184661865234375e+02
1.327999973297119141e+01,1.374489898681640625e+02
1.331999969482421875e+01,1.352717895507812500e+02
1.335999965667724609e+01,1.344599304199218750e+02
1.340000057220458984e+01,1.338841400146484375e+02
1.344000053405761719e+01,1.334910736083984375e+02
1.348000049591064453e+01,1.330976867675781250e+02
1.352000045776367188e+01,1.327085571289062500e+02
1.356000041961669922e+01,1.323193511962890625e+02
1.360000038146972656e+01,1.318848114013671875e+02
1.364000034332275391e+01,1.314052276611328125e+02
1.368000030517578125e+01,1.309252777099609375e+02
1.372000026702880859e+01,1.304451293945312500e+02
1.376000022888183594e+01,1.299649200439453125e+02
1.380000019073486328e+01,1.294480285644531250e+02
1.384000015258789062e+01,1.284286499023437500e+02
1.388000011444091797e+01,1.278854293823242188e+02
1.392000007629394531e+01,1.275821685791015625e+02
1.396000003814697266e+01,1.272797546386718750e+02
1.400000000000000000e+01,1.270047531127929688e+02
1.403999996185302734e+01,1.267574462890625000e+02
1.407999992370605469e+01,1.265098876953125000e+02
1.411999988555908203e+01,1.262618331909179688e+02
1.415999984741210938e+01,1.260133972167968750e+02
1.419999980926513672e+01,1.257624435424804688e+02
1.423999977111816406e+01,1.255087432861328125e+02
1.427999973297119141e+01,1.252546844482421875e+02
1.431999969482421875e+01,1.250017395019531250e+02
1.435999965667724609e+01,1.247485656738281250e+02
1.439999961853027344e+01,1.244818572998046875e+02
1.444000053405761719e+01,1.241977005004882812e+02
1.448000049591064453e+01,1.239135971069335938e+02
1.452000045776367188e+01,1.236294708251953125e+02
1.456000041961669922e+01,1.233451843261718750e+02
1.460000038146972656e+01,1.230581054687500000e+02
1.464000034332275391e+01,1.227683334350585938e+02
1.468000030517578125e+01,1.224785232543945312e+02
1.472000026702880859e+01,1.221867370605468750e+02
1.476000022888183594e+01,1.218949279785156250e+02
1.480000019073486328e+01,1.216013031005859375e+02
1.484000015258789062e+01,1.213058319091796875e+02
1.488000011444091797e+01,1.210100784301757812e+02
1.492000007629394531e+01,1.207152481079101562e+02
1.496000003814697266e+01,1.204203720092773438e+02
1.500000000000000000e+01,1.201254119873046875e+02
1.503999996185302734e+01,1.198302917480468750e+02
1.507999992370605469e+01,1.195350646972656250e+02
1.511999988555908203e+01,1.192396316528320312e+02
1.515999984741210938e+01,1.189442367553710938e+02
1.519999980926513672e+01,1.186454010009765625e+02
1.523999977111816406e+01,1.183431396484375000e+02
1.527999973297119141e+01,1.180407867431640625e+02
1.531999969482421875e+01,1.177393493652343750e+02
1.535999965667724609e+01,1.174376831054687500e+02
1.539999961853027344e+01,1.171367874145507812e+02
1.544000053405761719e+01,1.168365173339843750e+02
1.548000049591064453e+01,1.165361175537109375e+02
1.552000045776367188e+01,1.162359771728515625e+02
1.556000041961669922e+01,1.159356994628906250e+02
1.560000038146972656e+01,1.156425628662109375e+02
1.564000034332275391e+01,1.153563766479492188e+02
1.568000030517578125e+01,1.150699157714843750e+02
1.572000026702880859e+01,1.148079071044921875e+02
1.576000022888183594e+01,1.145458831787109375e+02
1.580000019073486328e+01,1.142778091430664062e+02
1.584000015258789062e+01,1.140035247802734375e+02
1.588000011444091797e+01,1.137266616821289062e+02
1.592000007629394531e+01,1.134534606933593750e+02
1.596000003814697266e+01,1.131801605224609375e+02
1.600000000000000000e+01,1.129071121215820312e+02
1.603999900817871094e+01,1.126345367431640625e+02
1.607999992370605469e+01,1.123616104125976562e+02
1.611999893188476562e+01,1.120863342285156250e+02
1.615999984741210938e+01,1.118106994628906250e+02
1.619999885559082031e+01,1.115348663330078125e+02
1.623999977111816406e+01,1.112586898803710938e+02
1.627999877929687500e+01,1.109823455810546875e+02
1.631999969482421875e+01,1.107016830444335938e+02
1.635999870300292969e+01,1.104208374023437500e+02
1.639999961853027344e+01,1.101397018432617188e+02
1.643999862670898438e+01,1.098583755493164062e+02
1.647999954223632812e+01,1.095768356323242188e+02
1.652000045776367188e+01,1.093031845092773438e+02
1.655999946594238281e+01,1.090293426513671875e+02
1.660000038146972656e+01,1.087551651000976562e+02
1.663999938964843750e+01,1.084808349609375000e+02
1.668000030517578125e+01,1.082062988281250000e+02
1.671999931335449219e+01,1.079290008544921875e+02
1.676000022888183594e+01,1.076513977050781250e+02
1.679999923706054688e+01,1.073735351562500000e+02
1.684000015258789062e+01,1.070955963134765625e+02
1.687999916076660156e+01,1.068172836303710938e+02
1.692000007629394531e+01,1.065476837158203125e+02
1.695999908447265625e+01,1.062777709960937500e+02
1.700000000000000000e+01,1.060090484619140625e+02
1.703999900817871094e+01,1.057415313720703125e+02
1.707999992370605469e+01,1.054738159179687500e+02
1.711999893188476562e+01,1.051941680908203125e+02
1.715999984741210938e+01,1.049143600463867188e+02
1.719999885559082031e+01,1.046345901489257812e+02
1.723999977111816406e+01,1.043547973632812500e+02
1.727999877929687500e+01,1.040437622070312500e+02
1.731999969482421875e+01,1.037410736083984375e+02
1.735999870300292969e+01,1.034384918212890625e+02
1.739999961853027344e+01,1.031359939575195312e+02
1.743999862670898438e+01,1.028330993652343750e+02
1.747999954223632812e+01,1.025291366577148438e+02
