# Start of Energy Bin (keV), Effective Area (cm^2)
1.600000023841857910e+00,1.119869232177734375e+00
1.639999985694885254e+00,1.530220508575439453e+00
1.680000066757202148e+00,2.085813999176025391e+00
1.720000028610229492e+00,2.836525440216064453e+00
1.759999990463256836e+00,3.792650699615478516e+00
1.799999952316284180e+00,4.726112365722656250e+00
1.840000033378601074e+00,2.593600273132324219e+00
1.879999995231628418e+00,3.274499416351318359e+00
1.920000076293945312e+00,4.229172706604003906e+00
1.960000038146972656e+00,5.282554626464843750e+00
2.000000000000000000e+00,6.480362892150878906e+00
2.039999961853027344e+00,7.881815910339355469e+00
2.079999923706054688e+00,9.577856063842773438e+00
2.119999885559082031e+00,8.550805091857910156e+00
2.160000085830688477e+00,9.872171401977539062e+00
2.200000047683715820e+00,1.019388198852539062e+01
2.240000009536743164e+00,1.160790443420410156e+01
2.279999971389770508e+00,1.325916957855224609e+01
2.319999933242797852e+00,1.528840827941894531e+01
2.360000133514404297e+00,1.724061965942382812e+01
2.400000095367431641e+00,1.909648132324218750e+01
2.440000057220458984e+00,2.119886398315429688e+01
2.480000019073486328e+00,2.366101074218750000e+01
2.519999980926513672e+00,2.663862609863281250e+01
2.559999942779541016e+00,2.990420150756835938e+01
2.599999904632568359e+00,3.284395599365234375e+01
2.639999866485595703e+00,3.328542327880859375e+01
2.679999828338623047e+00,3.620830535888671875e+01
2.720000028610229492e+00,3.935363006591796875e+01
2.759999990463256836e+00,4.275366592407226562e+01
2.799999952316284180e+00,4.641173934936523438e+01
2.840000152587890625e+00,5.018392181396484375e+01
2.880000114440917969e+00,5.341416931152343750e+01
2.920000076293945312e+00,5.679240417480468750e+01
2.960000038146972656e+00,6.037046813964843750e+01
3.000000000000000000e+00,6.426917266845703125e+01
3.039999961853027344e+00,6.646912384033203125e+01
3.079999923706054688e+00,7.046232604980468750e+01
3.119999885559082031e+00,7.460589599609375000e+01
3.159999847412109375e+00,7.805043792724609375e+01
3.199999809265136719e+00,8.161157226562500000e+01
3.240000009536743164e+00,8.529462432861328125e+01
3.279999971389770508e+00,8.786579895019531250e+01
3.319999933242797852e+00,9.252000427246093750e+01
3.360000133514404297e+00,9.738967895507812500e+01
3.400000095367431641e+00,1.024665679931640625e+02
3.440000057220458984e+00,1.064103851318359375e+02
3.480000019073486328e+00,1.092698669433593750e+02
3.519999980926513672e+00,1.093811645507812500e+02
3.559999942779541016e+00,1.122782287597656250e+02
3.599999904632568359e+00,1.152356872558593750e+02
3.639999866485595703e+00,1.182248229980468750e+02
3.679999828338623047e+00,1.212549438476562500e+02
3.719999790191650391e+00,1.228414764404296875e+02
3.759999752044677734e+00,1.259632034301757812e+02
3.800000190734863281e+00,1.286772766113281250e+02
3.840000152587890625e+00,1.310870361328125000e+02
3.880000114440917969e+00,1.335041503906250000e+02
3.920000076293945312e+00,1.365912933349609375e+02
3.960000038146972656e+00,1.399385375976562500e+02
4.000000000000000000e+00,1.424746704101562500e+02
4.039999961853027344e+00,1.457523040771484375e+02
4.079999923706054688e+00,1.490726776123046875e+02
4.119999885559082031e+00,1.524367218017578125e+02
4.159999847412109375e+00,1.558013916015625000e+02
4.199999809265136719e+00,1.586551818847656250e+02
4.239999771118164062e+00,1.615259704589843750e+02
4.279999732971191406e+00,1.644204101562500000e+02
4.320000171661376953e+00,1.645838623046875000e+02
4.360000133514404297e+00,1.662794952392578125e+02
4.400000095367431641e+00,1.687326812744140625e+02
4.440000057220458984e+00,1.711964263916015625e+02
4.480000019073486328e+00,1.736780853271484375e+02
4.519999980926513672e+00,1.761734619140625000e+02
4.559999942779541016e+00,1.786742858886718750e+02
4.599999904632568359e+00,1.788997344970703125e+02
4.639999866485595703e+00,1.809831542968750000e+02
4.679999828338623047e+00,1.829703216552734375e+02
4.719999790191650391e+00,1.849589691162109375e+02
4.759999752044677734e+00,1.869497375488281250e+02
4.799999713897705078e+00,1.889373321533203125e+02
4.840000152587890625e+00,1.909175567626953125e+02
4.880000114440917969e+00,1.928958435058593750e+02
4.920000076293945312e+00,1.939188690185546875e+02
4.960000038146972656e+00,1.958995513916015625e+02
5.000000000000000000e+00,1.978309326171875000e+02
5.039999961853027344e+00,1.998773498535156250e+02
5.079999923706054688e+00,2.017744140625000000e+02
5.119999885559082031e+00,2.036691436767578125e+02
5.159999847412109375e+00,2.055613403320312500e+02
5.199999809265136719e+00,2.074476165771484375e+02
5.239999771118164062e+00,2.093296508789062500e+02
5.279999732971191406e+00,2.112121429443359375e+02
5.320000171661376953e+00,2.130965423583984375e+02
5.360000133514404297e+00,2.149818878173828125e+02
5.400000095367431641e+00,2.168643493652343750e+02
5.440000057220458984e+00,2.187424468994140625e+02
5.480000019073486328e+00,2.206211700439453125e+02
5.519999980926513672e+00,2.225008392333984375e+02
5.559999942779541016e+00,2.242270507812500000e+02
5.599999904632568359e+00,2.257921752929687500e+02
5.639999866485595703e+00,2.273533630371093750e+02
5.679999828338623047e+00,2.289120483398437500e+02
5.719999790191650391e+00,2.304691162109375000e+02
5.759999752044677734e+00,2.320233764648437500e+02
5.799999713897705078e+00,2.335556640625000000e+02
5.839999675750732422e+00,2.350672454833984375e+02
5.879999637603759766e+00,2.365765380859375000e+02
5.919999599456787109e+00,2.380834960937500000e+02
5.960000038146972656e+00,2.395880279541015625e+02
6.000000000000000000e+00,2.409597473144531250e+02
6.039999961853027344e+00,2.421958465576171875e+02
6.079999923706054688e+00,2.434273071289062500e+02
6.119999885559082031e+00,2.445369720458984375e+02
6.159999847412109375e+00,2.455628662109375000e+02
6.199999809265136719e+00,2.465928955078125000e+02
6.239999771118164062e+00,2.476266632080078125e+02
6.279999732971191406e+00,2.486555480957031250e+02
6.319999694824218750e+00,2.496803131103515625e+02
6.359999656677246094e+00,2.506999969482421875e+02
6.399999618530273438e+00,2.517092742919921875e+02
6.439999580383300781e+00,2.527083282470703125e+02
6.480000019073486328e+00,2.537023773193359375e+02
6.519999980926513672e+00,2.546919403076171875e+02
6.559999942779541016e+00,2.556768951416015625e+02
6.599999904632568359e+00,2.566523437500000000e+02
6.639999866485595703e+00,2.576181335449218750e+02
6.679999828338623047e+00,2.585799865722656250e+02
6.719999790191650391e+00,2.594843750000000000e+02
6.759999752044677734e+00,2.602735595703125000e+02
6.799999713897705078e+00,2.610470581054687500e+02
6.839999675750732422e+00,2.618052978515625000e+02
6.879999637603759766e+00,2.625593566894531250e+02
6.919999599456787109e+00,2.633088989257812500e+02
6.959999561309814453e+00,2.640542297363281250e+02
7.000000000000000000e+00,2.647386169433593750e+02
7.039999961853027344e+00,2.653616027832031250e+02
7.079999923706054688e+00,2.659815368652343750e+02
7.119999885559082031e+00,2.651867065429687500e+02
7.159999847412109375e+00,2.657865905761718750e+02
7.199999809265136719e+00,2.663938293457031250e+02
7.239999771118164062e+00,2.670084228515625000e+02
7.279999732971191406e+00,2.676192321777343750e+02
7.319999694824218750e+00,2.682265014648437500e+02
7.359999656677246094e+00,2.688296813964843750e+02
7.399999618530273438e+00,2.694179687500000000e+02
7.439999580383300781e+00,2.699908142089843750e+02
7.479999542236328125e+00,2.705606689453125000e+02
7.519999980926513672e+00,2.711261901855468750e+02
7.559999942779541016e+00,2.716882629394531250e+02
7.599999904632568359e+00,2.722362365722656250e+02
7.639999866485595703e+00,2.727700805664062500e+02
7.679999828338623047e+00,2.733003845214843750e+02
7.719999790191650391e+00,2.738282470703125000e+02
7.759999752044677734e+00,2.743533935546875000e+02
7.799999713897705078e+00,2.748634948730468750e+02
7.839999675750732422e+00,2.753585205078125000e+02
7.879999637603759766e+00,2.758507690429687500e+02
7.919999599456787109e+00,2.763396606445312500e+02
7.959999561309814453e+00,2.768255004882812500e+02
7.999999523162841797e+00,2.772696228027343750e+02
8.039999961853027344e+00,2.776714782714843750e+02
8.079999923706054688e+00,2.780705261230468750e+02
8.119999885559082031e+00,2.784670410156250000e+02
8.159999847412109375e+00,2.787851562500000000e+02
8.199999809265136719e+00,2.790737915039062500e+02
8.239999771118164062e+00,2.793643798828125000e+02
8.279999732971191406e+00,2.797471008300781250e+02
8.319999694824218750e+00,2.801291503906250000e+02
8.359999656677246094e+00,2.805086975097656250e+02
8.399999618530273438e+00,2.808451538085937500e+02
8.439999580383300781e+00,2.811385498046875000e+02
8.479999542236328125e+00,2.814289245605468750e+02
8.520000457763671875e+00,2.817153015136718750e+02
8.560000419616699219e+00,2.819989929199218750e+02
8.600000381469726562e+00,2.822276306152343750e+02
8.640000343322753906e+00,2.824010314941406250e+02
8.680000305175781250e+00,2.825714111328125000e+02
8.720000267028808594e+00,2.827392272949218750e+02
8.760000228881835938e+00,2.829046020507812500e+02
8.800000190734863281e+00,2.830124511718750000e+02
8.840000152587890625e+00,2.830625305175781250e+02
8.880000114440917969e+00,2.831100463867187500e+02
8.920000076293945312e+00,2.831566772460937500e+02
8.960000038146972656e+00,2.831593017578125000e+02
9.000000000000000000e+00,2.830829162597656250e+02
9.039999961853027344e+00,2.829499511718750000e+02
9.079999923706054688e+00,2.828139648437500000e+02
9.119999885559082031e+00,2.826964721679687500e+02
9.159999847412109375e+00,2.826886596679687500e+02
9.199999809265136719e+00,2.826262207031250000e+02
9.239999771118164062e+00,2.825093078613281250e+02
9.279999732971191406e+00,2.823889160156250000e+02
9.319999694824218750e+00,2.822675476074218750e+02
9.359999656677246094e+00,2.821427001953125000e+02
9.399999618530273438e+00,2.819553527832031250e+02
9.439999580383300781e+00,2.817056274414062500e+02
9.479999542236328125e+00,2.814525451660156250e+02
9.519999504089355469e+00,2.811997070312500000e+02
9.560000419616699219e+00,2.809437866210937500e+02
9.600000381469726562e+00,2.805475158691406250e+02
9.640000343322753906e+00,2.800367126464843750e+02
9.680000305175781250e+00,2.795994873046875000e+02
9.720000267028808594e+00,2.791557617187500000e+02
9.760000228881835938e+00,2.787084960937500000e+02
9.800000190734863281e+00,2.778424987792968750e+02
9.840000152587890625e+00,2.765493469238281250e+02
9.880000114440917969e+00,2.752269287109375000e+02
9.920000076293945312e+00,2.739006347656250000e+02
9.960000038146972656e+00,2.729186401367187500e+02
1.000000000000000000e+01,2.692313842773437500e+02
1.003999996185302734e+01,2.625977478027343750e+02
1.007999992370605469e+01,2.559664001464843750e+02
1.011999988555908203e+01,2.493378143310546875e+02
1.015999984741210938e+01,2.427134399414062500e+02
1.019999980926513672e+01,2.354669799804687500e+02
1.023999977111816406e+01,2.355991516113281250e+02
1.027999973297119141e+01,2.357236938476562500e+02
1.032000064849853516e+01,2.358413391113281250e+02
1.036000061035156250e+01,2.359518432617187500e+02
1.040000057220458984e+01,2.369440460205078125e+02
1.044000053405761719e+01,2.384793701171875000e+02
1.048000049591064453e+01,2.389641876220703125e+02
1.052000045776367188e+01,2.394684906005859375e+02
1.056000041961669922e+01,2.399678649902343750e+02
1.060000038146972656e+01,2.398788909912109375e+02
1.064000034332275391e+01,2.392042541503906250e+02
1.068000030517578125e+01,2.385286254882812500e+02
1.072000026702880859e+01,2.378274841308593750e+02
1.076000022888183594e+01,2.371254882812500000e+02
1.080000019073486328e+01,2.363110046386718750e+02
1.084000015258789062e+01,2.353679809570312500e+02
1.088000011444091797e+01,2.344177246093750000e+02
1.092000007629394531e+01,2.334683990478515625e+02
1.096000003814697266e+01,2.325195922851562500e+02
1.100000000000000000e+01,2.314653320312500000e+02
1.103999996185302734e+01,2.303062591552734375e+02
1.107999992370605469e+01,2.291491394042968750e+02
1.111999988555908203e+01,2.289104614257812500e+02
1.115999984741210938e+01,2.286699676513671875e+02
1.119999980926513672e+01,2.279285736083984375e+02
1.123999977111816406e+01,2.266854858398437500e+02
1.127999973297119141e+01,2.254399871826171875e+02
1.131999969482421875e+01,2.241899261474609375e+02
1.136000061035156250e+01,2.229378662109375000e+02
1.140000057220458984e+01,2.205784606933593750e+02
1.144000053405761719e+01,2.171094207763671875e+02
1.148000049591064453e+01,2.136342773437500000e+02
1.152000045776367188e+01,2.099712524414062500e+02
1.156000041961669922e+01,2.004673004150390625e+02
1.160000038146972656e+01,1.977693328857421875e+02
1.164000034332275391e+01,1.969575500488281250e+02
1.168000030517578125e+01,1.961406250000000000e+02
1.172000026702880859e+01,1.953119812011718750e+02
1.176000022888183594e+01,1.944758605957031250e+02
1.180000019073486328e+01,1.935610046386718750e+02
1.184000015258789062e+01,1.925716552734375000e+02
1.188000011444091797e+01,1.915825195312500000e+02
1.192000007629394531e+01,1.905885314941406250e+02
1.196000003814697266e+01,1.895888824462890625e+02
1.200000000000000000e+01,1.884479980468750000e+02
1.203999996185302734e+01,1.871671142578125000e+02
1.207999992370605469e+01,1.862553100585937500e+02
1.211999988555908203e+01,1.864138793945312500e+02
1.215999984741210938e+01,1.865713806152343750e+02
1.219999980926513672e+01,1.866581573486328125e+02
1.223999977111816406e+01,1.866737060546875000e+02
1.227999973297119141e+01,1.866883544921875000e+02
1.231999969482421875e+01,1.867056579589843750e+02
1.236000061035156250e+01,1.867220306396484375e+02
1.240000057220458984e+01,1.866277160644531250e+02
1.244000053405761719e+01,1.864232177734375000e+02
1.248000049591064453e+01,1.862177429199218750e+02
1.252000045776367188e+01,1.860102081298828125e+02
1.256000041961669922e+01,1.858021240234375000e+02
1.260000038146972656e+01,1.855286712646484375e+02
1.264000034332275391e+01,1.851897125244140625e+02
1.268000030517578125e+01,1.848506469726562500e+02
1.272000026702880859e+01,1.845084533691406250e+02
1.276000022888183594e+01,1.841659240722656250e+02
1.280000019073486328e+01,1.837795715332031250e+02
1.284000015258789062e+01,1.833493957519531250e+02
1.288000011444091797e+01,1.829196777343750000e+02
1.292000007629394531e+01,1.824939117431640625e+02
1.296000003814697266e+01,1.820678405761718750e+02
1.300000000000000000e+01,1.814506072998046875e+02
1.303999996185302734e+01,1.806429595947265625e+02
1.307999992370605469e+01,1.798364257812500000e+02
1.311999988555908203e+01,1.790224761962890625e+02
1.315999984741210938e+01,1.782073364257812500e+02
1.319999980926513672e+01,1.772824401855468750e+02
1.323999977111816406e+01,1.762492065429687500e+02
1.327999973297119141e+01,1.751275482177734375e+02
1.331999969482421875e+01,1.723520355224609375e+02
1.335999965667724609e+01,1.713159332275390625e+02
1.340000057220458984e+01,1.705838165283203125e+02
1.344000053405761719e+01,1.700878601074218750e+02
1.348000049591064453e+01,1.695914306640625000e+02
1.352000045776367188e+01,1.690946807861328125e+02
1.356000041961669922e+01,1.685978546142578125e+02
1.360000038146972656e+01,1.680423736572265625e+02
1.364000034332275391e+01,1.674285278320312500e+02
1.368000030517578125e+01,1.668142547607421875e+02
1.372000026702880859e+01,1.662002563476562500e+02
1.376000022888183594e+01,1.655861511230468750e+02
1.380000019073486328e+01,1.649247894287109375e+02
1.384000015258789062e+01,1.636226501464843750e+02
1.388000011444091797e+01,1.629306488037109375e+02
1.392000007629394531e+01,1.625454101562500000e+02
1.396000003814697266e+01,1.621612243652343750e+02
1.400000000000000000e+01,1.618121337890625000e+02
1.403999996185302734e+01,1.614984283447265625e+02
1.407999992370605469e+01,1.611844482421875000e+02
1.411999988555908203e+01,1.608698730468750000e+02
1.415999984741210938e+01,1.605548706054687500e+02
1.419999980926513672e+01,1.602363433837890625e+02
1.423999977111816406e+01,1.599140319824218750e+02
1.427999973297119141e+01,1.595912780761718750e+02
1.431999969482421875e+01,1.592685241699218750e+02
1.435999965667724609e+01,1.589454803466796875e+02
1.439999961853027344e+01,1.586049499511718750e+02
1.444000053405761719e+01,1.582419738769531250e+02
1.448000049591064453e+01,1.578790283203125000e+02
1.452000045776367188e+01,1.575163269042968750e+02
1.456000041961669922e+01,1.571533966064453125e+02
1.460000038146972656e+01,1.567866821289062500e+02
1.464000034332275391e+01,1.564162445068359375e+02
1.468000030517578125e+01,1.560457763671875000e+02
1.472000026702880859e+01,1.556750030517578125e+02
1.476000022888183594e+01,1.553041687011718750e+02
1.480000019073486328e+01,1.549307556152343750e+02
1.484000015258789062e+01,1.545547485351562500e+02
1.488000011444091797e+01,1.541783905029296875e+02
1.492000007629394531e+01,1.538020935058593750e+02
1.496000003814697266e+01,1.534257202148437500e+02
1.500000000000000000e+01,1.530490417480468750e+02
1.503999996185302734e+01,1.526719207763671875e+02
1.507999992370605469e+01,1.522946624755859375e+02
1.511999988555908203e+01,1.519178619384765625e+02
1.515999984741210938e+01,1.515411071777343750e+02
1.519999980926513672e+01,1.511598052978515625e+02
1.523999977111816406e+01,1.507739410400390625e+02
1.527999973297119141e+01,1.503879699707031250e+02
1.531999969482421875e+01,1.500008392333984375e+02
1.535999965667724609e+01,1.496134490966796875e+02
1.539999961853027344e+01,1.492268371582031250e+02
1.544000053405761719e+01,1.488408203125000000e+02
1.548000049591064453e+01,1.484546203613281250e+02
1.552000045776367188e+01,1.480707244873046875e+02
1.556000041961669922e+01,1.476866455078125000e+02
1.560000038146972656e+01,1.473114471435546875e+02
1.564000034332275391e+01,1.469449462890625000e+02
1.568000030517578125e+01,1.465781097412109375e+02
1.572000026702880859e+01,1.462429809570312500e+02
1.576000022888183594e+01,1.459078063964843750e+02
1.580000019073486328e+01,1.455647583007812500e+02
1.584000015258789062e+01,1.452136230468750000e+02
1.588000011444091797e+01,1.448592224121093750e+02
1.592000007629394531e+01,1.445065307617187500e+02
1.596000003814697266e+01,1.441537017822265625e+02
1.600000000000000000e+01,1.438009033203125000e+02
1.603999900817871094e+01,1.434483642578125000e+02
1.607999992370605469e+01,1.430954284667968750e+02
1.611999893188476562e+01,1.427397460937500000e+02
1.615999984741210938e+01,1.423835906982421875e+02
1.619999885559082031e+01,1.420272521972656250e+02
1.623999977111816406e+01,1.416704711914062500e+02
1.627999877929687500e+01,1.413134918212890625e+02
1.631999969482421875e+01,1.409564514160156250e+02
1.635999870300292969e+01,1.405991973876953125e+02
1.639999961853027344e+01,1.402415313720703125e+02
1.643999862670898438e+01,1.398836517333984375e+02
1.647999954223632812e+01,1.395254974365234375e+02
1.652000045776367188e+01,1.391710205078125000e+02
1.655999946594238281e+01,1.388163604736328125e+02
1.660000038146972656e+01,1.384613037109375000e+02
1.663999938964843750e+01,1.381060791015625000e+02
1.668000030517578125e+01,1.377506408691406250e+02
1.671999931335449219e+01,1.373953552246093750e+02
1.676000022888183594e+01,1.370397186279296875e+02
1.679999923706054688e+01,1.366837768554687500e+02
1.684000015258789062e+01,1.363277282714843750e+02
1.687999916076660156e+01,1.359712219238281250e+02
1.692000007629394531e+01,1.356145477294921875e+02
1.695999908447265625e+01,1.352575836181640625e+02
1.700000000000000000e+01,1.349039764404296875e+02
1.703999900817871094e+01,1.345537719726562500e+02
1.707999992370605469e+01,1.342033691406250000e+02
1.711999893188476562e+01,1.338540039062500000e+02
1.715999984741210938e+01,1.335044097900390625e+02
1.719999885559082031e+01,1.331548309326171875e+02
1.723999977111816406e+01,1.328051910400390625e+02
1.727999877929687500e+01,1.324159393310546875e+02
1.731999969482421875e+01,1.320156860351562500e+02
1.735999870300292969e+01,1.316157073974609375e+02
1.739999961853027344e+01,1.312158813476562500e+02
1.743999862670898438e+01,1.308156738281250000e+02
1.747999954223632812e+01,1.304141845703125000e+02
