# Start of Energy Bin (keV), Effective Area (cm^2)
1.600000023841857910e+00,5.783036351203918457e-01
1.639999985694885254e+00,8.035587668418884277e-01
1.680000066757202148e+00,1.112375974655151367e+00
1.720000028610229492e+00,1.534479856491088867e+00
1.759999990463256836e+00,2.079061508178710938e+00
1.799999952316284180e+00,2.622211694717407227e+00
1.840000033378601074e+00,1.454990506172180176e+00
1.879999995231628418e+00,1.856972932815551758e+00
1.920000076293945312e+00,2.423787355422973633e+00
1.960000038146972656e+00,3.057543277740478516e+00
2.000000000000000000e+00,3.786226511001586914e+00
2.039999961853027344e+00,4.646245479583740234e+00
2.079999923706054688e+00,5.693308830261230469e+00
2.119999885559082031e+00,5.187829494476318359e+00
2.160000085830688477e+00,6.029473304748535156e+00
2.200000047683715820e+00,6.294279098510742188e+00
2.240000009536743164e+00,7.212311267852783203e+00
2.279999971389770508e+00,8.286881446838378906e+00
2.319999933242797852e+00,9.608798027038574219e+00
2.360000133514404297e+00,1.089387226104736328e+01
2.400000095367431641e+00,1.212751102447509766e+01
2.440000057220458984e+00,1.352490043640136719e+01
2.480000019073486328e+00,1.515817070007324219e+01
2.519999980926513672e+00,1.712581253051757812e+01
2.559999942779541016e+00,1.928890991210937500e+01
2.599999904632568359e+00,2.125110244750976562e+01
2.639999866485595703e+00,2.166681671142578125e+01
2.679999828338623047e+00,2.363359069824218750e+01
2.720000028610229492e+00,2.575212669372558594e+01
2.759999990463256836e+00,2.804428672790527344e+01
2.799999952316284180e+00,3.051353836059570312e+01
2.840000152587890625e+00,3.306618118286132812e+01
2.880000114440917969e+00,3.526839828491210938e+01
2.920000076293945312e+00,3.757550811767578125e+01
2.960000038146972656e+00,4.001992034912109375e+01
3.000000000000000000e+00,4.266329574584960938e+01
3.039999961853027344e+00,4.422022247314453125e+01
3.079999923706054688e+00,4.692339706420898438e+01
3.119999885559082031e+00,4.972557449340820312e+01
3.159999847412109375e+00,5.206269454956054688e+01
3.199999809265136719e+00,5.447780227661132812e+01
3.240000009536743164e+00,5.697456359863281250e+01
3.279999971389770508e+00,5.876352310180664062e+01
3.319999933242797852e+00,6.206345748901367188e+01
3.360000133514404297e+00,6.552330017089843750e+01
3.400000095367431641e+00,6.913668060302734375e+01
3.440000057220458984e+00,7.189859008789062500e+01
3.480000019073486328e+00,7.389668273925781250e+01
3.519999980926513672e+00,7.121897125244140625e+01
3.559999942779541016e+00,7.319787597656250000e+01
3.599999904632568359e+00,7.525186157226562500e+01
3.639999866485595703e+00,7.733457946777343750e+01
3.679999828338623047e+00,7.944879913330078125e+01
3.719999790191650391e+00,7.913750457763671875e+01
3.759999752044677734e+00,8.131463623046875000e+01
3.800000190734863281e+00,8.321815490722656250e+01
3.840000152587890625e+00,8.493215942382812500e+01
3.880000114440917969e+00,8.665081787109375000e+01
3.920000076293945312e+00,8.882619476318359375e+01
3.960000038146972656e+00,9.117948913574218750e+01
4.000000000000000000e+00,9.222707366943359375e+01
4.039999961853027344e+00,9.453421783447265625e+01
4.079999923706054688e+00,9.687030029296875000e+01
4.119999885559082031e+00,9.924399566650390625e+01
4.159999847412109375e+00,1.016209411621093750e+02
4.199999809265136719e+00,1.036667633056640625e+02
4.239999771118164062e+00,1.057256011962890625e+02
4.279999732971191406e+00,1.078028335571289062e+02
4.320000171661376953e+00,1.053519058227539062e+02
4.360000133514404297e+00,1.057842559814453125e+02
4.400000095367431641e+00,1.075534973144531250e+02
4.440000057220458984e+00,1.093340988159179688e+02
4.480000019073486328e+00,1.111359405517578125e+02
4.519999980926513672e+00,1.129604873657226562e+02
4.559999942779541016e+00,1.147836608886718750e+02
4.599999904632568359e+00,1.132361068725585938e+02
4.639999866485595703e+00,1.148940429687500000e+02
4.679999828338623047e+00,1.163943023681640625e+02
4.719999790191650391e+00,1.178850860595703125e+02
4.759999752044677734e+00,1.193769073486328125e+02
4.799999713897705078e+00,1.208697967529296875e+02
4.840000152587890625e+00,1.223559494018554688e+02
4.880000114440917969e+00,1.238396606445312500e+02
4.920000076293945312e+00,1.237729187011718750e+02
4.960000038146972656e+00,1.252612304687500000e+02
5.000000000000000000e+00,1.267164306640625000e+02
5.039999961853027344e+00,1.282439880371093750e+02
5.079999923706054688e+00,1.296735687255859375e+02
5.119999885559082031e+00,1.310986633300781250e+02
5.159999847412109375e+00,1.325203704833984375e+02
5.199999809265136719e+00,1.339367675781250000e+02
5.239999771118164062e+00,1.353491668701171875e+02
5.279999732971191406e+00,1.367616729736328125e+02
5.320000171661376953e+00,1.381741638183593750e+02
5.360000133514404297e+00,1.395866699218750000e+02
5.400000095367431641e+00,1.409962921142578125e+02
5.440000057220458984e+00,1.424014892578125000e+02
5.480000019073486328e+00,1.438054504394531250e+02
5.519999980926513672e+00,1.452142028808593750e+02
5.559999942779541016e+00,1.465215148925781250e+02
5.599999904632568359e+00,1.477215881347656250e+02
5.639999866485595703e+00,1.489171295166015625e+02
5.679999828338623047e+00,1.501094818115234375e+02
5.719999790191650391e+00,1.512871856689453125e+02
5.759999752044677734e+00,1.524616699218750000e+02
5.799999713897705078e+00,1.536200714111328125e+02
5.839999675750732422e+00,1.547632904052734375e+02
5.879999637603759766e+00,1.559030303955078125e+02
5.919999599456787109e+00,1.570456237792968750e+02
5.960000038146972656e+00,1.581847229003906250e+02
6.000000000000000000e+00,1.592350921630859375e+02
6.039999961853027344e+00,1.601946258544921875e+02
6.079999923706054688e+00,1.611492919921875000e+02
6.119999885559082031e+00,1.620280761718750000e+02
6.159999847412109375e+00,1.628493041992187500e+02
6.199999809265136719e+00,1.636711273193359375e+02
6.239999771118164062e+00,1.644940032958984375e+02
6.279999732971191406e+00,1.653118896484375000e+02
6.319999694824218750e+00,1.661181793212890625e+02
6.359999656677246094e+00,1.669193420410156250e+02
6.399999618530273438e+00,1.677115478515625000e+02
6.439999580383300781e+00,1.684949035644531250e+02
6.480000019073486328e+00,1.692735748291015625e+02
6.519999980926513672e+00,1.700476837158203125e+02
6.559999942779541016e+00,1.708172607421875000e+02
6.599999904632568359e+00,1.715785369873046875e+02
6.639999866485595703e+00,1.723314819335937500e+02
6.679999828338623047e+00,1.730801391601562500e+02
6.719999790191650391e+00,1.737888488769531250e+02
6.759999752044677734e+00,1.744185180664062500e+02
6.799999713897705078e+00,1.750357971191406250e+02
6.839999675750732422e+00,1.756409606933593750e+02
6.879999637603759766e+00,1.762416381835937500e+02
6.919999599456787109e+00,1.768405303955078125e+02
6.959999561309814453e+00,1.774351501464843750e+02
7.000000000000000000e+00,1.779859771728515625e+02
7.039999961853027344e+00,1.784926452636718750e+02
7.079999923706054688e+00,1.789960021972656250e+02
7.119999885559082031e+00,1.785407104492187500e+02
7.159999847412109375e+00,1.790223999023437500e+02
7.199999809265136719e+00,1.795055541992187500e+02
7.239999771118164062e+00,1.799908142089843750e+02
7.279999732971191406e+00,1.804720611572265625e+02
7.319999694824218750e+00,1.809538269042968750e+02
7.359999656677246094e+00,1.814316101074218750e+02
7.399999618530273438e+00,1.818973083496093750e+02
7.439999580383300781e+00,1.823509368896484375e+02
7.479999542236328125e+00,1.828010253906250000e+02
7.519999980926513672e+00,1.832427062988281250e+02
7.559999942779541016e+00,1.836807708740234375e+02
7.599999904632568359e+00,1.841066741943359375e+02
7.639999866485595703e+00,1.845202331542968750e+02
7.679999828338623047e+00,1.849304809570312500e+02
7.719999790191650391e+00,1.853425598144531250e+02
7.759999752044677734e+00,1.857517700195312500e+02
7.799999713897705078e+00,1.861474761962890625e+02
7.839999675750732422e+00,1.865291595458984375e+02
7.879999637603759766e+00,1.869076995849609375e+02
7.919999599456787109e+00,1.872805480957031250e+02
7.959999561309814453e+00,1.876502532958984375e+02
7.999999523162841797e+00,1.879865264892578125e+02
8.039999961853027344e+00,1.882893371582031250e+02
8.079999923706054688e+00,1.885891876220703125e+02
8.119999885559082031e+00,1.888936462402343750e+02
8.159999847412109375e+00,1.891441955566406250e+02
8.199999809265136719e+00,1.893671569824218750e+02
8.239999771118164062e+00,1.895880584716796875e+02
8.279999732971191406e+00,1.898822326660156250e+02
8.319999694824218750e+00,1.901742553710937500e+02
8.359999656677246094e+00,1.904636077880859375e+02
8.399999618530273438e+00,1.907180938720703125e+02
8.439999580383300781e+00,1.909380798339843750e+02
8.479999542236328125e+00,1.911552429199218750e+02
8.520000457763671875e+00,1.913728179931640625e+02
8.560000419616699219e+00,1.915876159667968750e+02
8.600000381469726562e+00,1.917621307373046875e+02
8.640000343322753906e+00,1.918959655761718750e+02
8.680000305175781250e+00,1.920269622802734375e+02
8.720000267028808594e+00,1.921468811035156250e+02
8.760000228881835938e+00,1.922640380859375000e+02
8.800000190734863281e+00,1.923432159423828125e+02
8.840000152587890625e+00,1.923843231201171875e+02
8.880000114440917969e+00,1.924224700927734375e+02
8.920000076293945312e+00,1.924903717041015625e+02
8.960000038146972656e+00,1.925274047851562500e+02
9.000000000000000000e+00,1.925134735107421875e+02
9.039999961853027344e+00,1.924641265869140625e+02
9.079999923706054688e+00,1.924118041992187500e+02
9.119999885559082031e+00,1.923501129150390625e+02
9.159999847412109375e+00,1.923748779296875000e+02
9.199999809265136719e+00,1.923656768798828125e+02
9.239999771118164062e+00,1.923222961425781250e+02
9.279999732971191406e+00,1.922758636474609375e+02
9.319999694824218750e+00,1.922355041503906250e+02
9.359999656677246094e+00,1.921920166015625000e+02
9.399999618530273438e+00,1.921076354980468750e+02
9.439999580383300781e+00,1.919822998046875000e+02
9.479999542236328125e+00,1.918538970947265625e+02
9.519999504089355469e+00,1.917394714355468750e+02
9.560000419616699219e+00,1.916221008300781250e+02
9.600000381469726562e+00,1.913553771972656250e+02
9.640000343322753906e+00,1.909837188720703125e+02
9.680000305175781250e+00,1.907426910400390625e+02
9.720000267028808594e+00,1.904833831787109375e+02
9.760000228881835938e+00,1.902209930419921875e+02
9.800000190734863281e+00,1.896657257080078125e+02
9.840000152587890625e+00,1.888117675781250000e+02
9.880000114440917969e+00,1.879366912841796875e+02
9.920000076293945312e+00,1.870918579101562500e+02
9.960000038146972656e+00,1.864573211669921875e+02
1.000000000000000000e+01,1.839420471191406250e+02
1.003999996185302734e+01,1.793982696533203125e+02
1.007999992370605469e+01,1.748556365966796875e+02
1.011999988555908203e+01,1.702808532714843750e+02
1.015999984741210938e+01,1.657103729248046875e+02
1.019999980926513672e+01,1.607138519287109375e+02
1.023999977111816406e+01,1.608399810791015625e+02
1.027999973297119141e+01,1.609607086181640625e+02
1.032000064849853516e+01,1.610947418212890625e+02
1.036000061035156250e+01,1.612236785888671875e+02
1.040000057220458984e+01,1.619580993652343750e+02
1.044000053405761719e+01,1.630670928955078125e+02
1.048000049591064453e+01,1.634568634033203125e+02
1.052000045776367188e+01,1.638339538574218750e+02
1.056000041961669922e+01,1.642076110839843750e+02
1.060000038146972656e+01,1.641658630371093750e+02
1.064000034332275391e+01,1.637110137939453125e+02
1.068000030517578125e+01,1.632550048828125000e+02
1.072000026702880859e+01,1.628044128417968750e+02
1.076000022888183594e+01,1.623528900146484375e+02
1.080000019073486328e+01,1.618204345703125000e+02
1.084000015258789062e+01,1.611964111328125000e+02
1.088000011444091797e+01,1.605668334960937500e+02
1.092000007629394531e+01,1.599120483398437500e+02
1.096000003814697266e+01,1.592575683593750000e+02
1.100000000000000000e+01,1.585272521972656250e+02
1.103999996185302734e+01,1.577216186523437500e+02
1.107999992370605469e+01,1.569172668457031250e+02
1.111999988555908203e+01,1.567573699951171875e+02
1.115999984741210938e+01,1.565960693359375000e+02
1.119999980926513672e+01,1.560797882080078125e+02
1.123999977111816406e+01,1.552082672119140625e+02
1.127999973297119141e+01,1.543349456787109375e+02
1.131999969482421875e+01,1.534593811035156250e+02
1.136000061035156250e+01,1.525822296142578125e+02
1.140000057220458984e+01,1.509514465332031250e+02
1.144000053405761719e+01,1.485655364990234375e+02
1.148000049591064453e+01,1.461755676269531250e+02
1.152000045776367188e+01,1.436493988037109375e+02
1.156000041961669922e+01,1.372896423339843750e+02
1.160000038146972656e+01,1.354460601806640625e+02
1.164000034332275391e+01,1.348948059082031250e+02
1.168000030517578125e+01,1.343400268554687500e+02
1.172000026702880859e+01,1.338031921386718750e+02
1.176000022888183594e+01,1.332608337402343750e+02
1.180000019073486328e+01,1.326576690673828125e+02
1.184000015258789062e+01,1.319963684082031250e+02
1.188000011444091797e+01,1.313350067138671875e+02
1.192000007629394531e+01,1.306445922851562500e+02
1.196000003814697266e+01,1.299501647949218750e+02
1.200000000000000000e+01,1.291584320068359375e+02
1.203999996185302734e+01,1.282700347900390625e+02
1.207999992370605469e+01,1.276413879394531250e+02
1.211999988555908203e+01,1.277719573974609375e+02
1.215999984741210938e+01,1.279017944335937500e+02
1.219999980926513672e+01,1.279794921875000000e+02
1.223999977111816406e+01,1.280048370361328125e+02
1.227999973297119141e+01,1.280295257568359375e+02
1.231999969482421875e+01,1.280489349365234375e+02
1.236000061035156250e+01,1.280677642822265625e+02
1.240000057220458984e+01,1.280078277587890625e+02
1.244000053405761719e+01,1.278695526123046875e+02
1.248000049591064453e+01,1.277306213378906250e+02
1.252000045776367188e+01,1.276102447509765625e+02
1.256000041961669922e+01,1.274894485473632812e+02
1.260000038146972656e+01,1.273229446411132812e+02
1.264000034332275391e+01,1.271109237670898438e+02
1.268000030517578125e+01,1.268985290527343750e+02
1.272000026702880859e+01,1.266705856323242188e+02
1.276000022888183594e+01,1.264421997070312500e+02
1.280000019073486328e+01,1.261835937500000000e+02
1.284000015258789062e+01,1.258947525024414062e+02
1.288000011444091797e+01,1.256061096191406250e+02
1.292000007629394531e+01,1.253112030029296875e+02
1.296000003814697266e+01,1.250160980224609375e+02
1.300000000000000000e+01,1.245896148681640625e+02
1.303999996185302734e+01,1.240321960449218750e+02
1.307999992370605469e+01,1.234755401611328125e+02
1.311999988555908203e+01,1.229166488647460938e+02
1.315999984741210938e+01,1.223568191528320312e+02
1.319999980926513672e+01,1.217230606079101562e+02
1.323999977111816406e+01,1.210161895751953125e+02
1.327999973297119141e+01,1.202643508911132812e+02
1.331999969482421875e+01,1.184222030639648438e+02
1.335999965667724609e+01,1.177291030883789062e+02
1.340000057220458984e+01,1.172401504516601562e+02
1.344000053405761719e+01,1.169083709716796875e+02
1.348000049591064453e+01,1.165763015747070312e+02
1.352000045776367188e+01,1.162488708496093750e+02
1.356000041961669922e+01,1.159212646484375000e+02
1.360000038146972656e+01,1.155529556274414062e+02
1.364000034332275391e+01,1.151442794799804688e+02
1.368000030517578125e+01,1.147351913452148438e+02
1.372000026702880859e+01,1.143284301757812500e+02
1.376000022888183594e+01,1.139214935302734375e+02
1.380000019073486328e+01,1.134828491210937500e+02
1.384000015258789062e+01,1.126220932006835938e+02
1.388000011444091797e+01,1.121686325073242188e+02
1.392000007629394531e+01,1.119150848388671875e+02
1.396000003814697266e+01,1.116620254516601562e+02
1.400000000000000000e+01,1.114322052001953125e+02
1.403999996185302734e+01,1.112256393432617188e+02
1.407999992370605469e+01,1.110187530517578125e+02
1.411999988555908203e+01,1.108123474121093750e+02
1.415999984741210938e+01,1.106056671142578125e+02
1.419999980926513672e+01,1.103959350585937500e+02
1.423999977111816406e+01,1.101831817626953125e+02
1.427999973297119141e+01,1.099701461791992188e+02
1.431999969482421875e+01,1.097615814208984375e+02
1.435999965667724609e+01,1.095527954101562500e+02
1.439999961853027344e+01,1.093316574096679688e+02
1.444000053405761719e+01,1.090948181152343750e+02
1.448000049591064453e+01,1.088579711914062500e+02
1.452000045776367188e+01,1.086133499145507812e+02
1.456000041961669922e+01,1.083685913085937500e+02
1.460000038146972656e+01,1.081211853027343750e+02
1.464000034332275391e+01,1.078710632324218750e+02
1.468000030517578125e+01,1.076208724975585938e+02
1.472000026702880859e+01,1.073794860839843750e+02
1.476000022888183594e+01,1.071379547119140625e+02
1.480000019073486328e+01,1.068944854736328125e+02
1.484000015258789062e+01,1.066489791870117188e+02
1.488000011444091797e+01,1.064031219482421875e+02
1.492000007629394531e+01,1.061483612060546875e+02
1.496000003814697266e+01,1.058935012817382812e+02
1.500000000000000000e+01,1.056384963989257812e+02
1.503999996185302734e+01,1.053832550048828125e+02
1.507999992370605469e+01,1.051279067993164062e+02
1.511999988555908203e+01,1.048787536621093750e+02
1.515999984741210938e+01,1.046294937133789062e+02
1.519999980926513672e+01,1.043768844604492188e+02
1.523999977111816406e+01,1.041209106445312500e+02
1.527999973297119141e+01,1.038647918701171875e+02
1.531999969482421875e+01,1.036178359985351562e+02
1.535999965667724609e+01,1.033707199096679688e+02
1.539999961853027344e+01,1.031238784790039062e+02
1.544000053405761719e+01,1.028773498535156250e+02
1.548000049591064453e+01,1.026306304931640625e+02
1.552000045776367188e+01,1.023749694824218750e+02
1.556000041961669922e+01,1.021191329956054688e+02
1.560000038146972656e+01,1.018692779541015625e+02
1.564000034332275391e+01,1.016253585815429688e+02
1.568000030517578125e+01,1.013812637329101562e+02
1.572000026702880859e+01,1.011339569091796875e+02
1.576000022888183594e+01,1.008867492675781250e+02
1.580000019073486328e+01,1.006339111328125000e+02
1.584000015258789062e+01,1.003753738403320312e+02
1.588000011444091797e+01,1.001146926879882812e+02
1.592000007629394531e+01,9.988574981689453125e+01
1.596000003814697266e+01,9.965644836425781250e+01
1.600000000000000000e+01,9.942671966552734375e+01
1.603999900817871094e+01,9.919651031494140625e+01
1.607999992370605469e+01,9.896598052978515625e+01
1.611999893188476562e+01,9.873001861572265625e+01
1.615999984741210938e+01,9.849371337890625000e+01
1.619999885559082031e+01,9.825715637207031250e+01
1.623999977111816406e+01,9.802026367187500000e+01
1.627999877929687500e+01,9.778311920166015625e+01
1.631999969482421875e+01,9.753576660156250000e+01
1.635999870300292969e+01,9.728821563720703125e+01
1.639999961853027344e+01,9.704044342041015625e+01
1.643999862670898438e+01,9.679247283935546875e+01
1.647999954223632812e+01,9.654421234130859375e+01
1.652000045776367188e+01,9.630194091796875000e+01
1.655999946594238281e+01,9.605947875976562500e+01
1.660000038146972656e+01,9.581681823730468750e+01
1.663999938964843750e+01,9.557392120361328125e+01
1.668000030517578125e+01,9.533081054687500000e+01
1.671999931335449219e+01,9.508409881591796875e+01
1.676000022888183594e+01,9.483716583251953125e+01
1.679999923706054688e+01,9.459004974365234375e+01
1.684000015258789062e+01,9.434269714355468750e+01
1.687999916076660156e+01,9.409517669677734375e+01
1.692000007629394531e+01,9.384906005859375000e+01
1.695999908447265625e+01,9.360276031494140625e+01
1.700000000000000000e+01,9.335849761962890625e+01
1.703999900817871094e+01,9.311618804931640625e+01
1.707999992370605469e+01,9.287378692626953125e+01
1.711999893188476562e+01,9.263884735107421875e+01
1.715999984741210938e+01,9.240372467041015625e+01
1.719999885559082031e+01,9.216856384277343750e+01
1.723999977111816406e+01,9.193328857421875000e+01
1.727999877929687500e+01,9.166696166992187500e+01
1.731999969482421875e+01,9.138990020751953125e+01
1.735999870300292969e+01,9.111302185058593750e+01
1.739999961853027344e+01,9.083621978759765625e+01
1.743999862670898438e+01,9.055919647216796875e+01
1.747999954223632812e+01,9.028126525878906250e+01
