# Start of Energy Bin (keV), Effective Area (cm^2)
1.600000023841857910e+00,9.220131039619445801e-01
1.639999985694885254e+00,1.258639216423034668e+00
1.680000066757202148e+00,1.713945031166076660e+00
1.720000028610229492e+00,2.328512907028198242e+00
1.759999990463256836e+00,3.110298156738281250e+00
1.799999952316284180e+00,3.870294570922851562e+00
1.840000033378601074e+00,2.120355844497680664e+00
1.879999995231628418e+00,2.675659656524658203e+00
1.920000076293945312e+00,3.458039760589599609e+00
1.960000038146972656e+00,4.322208881378173828e+00
2.000000000000000000e+00,5.306705951690673828e+00
2.039999961853027344e+00,6.460875034332275391e+00
2.079999923706054688e+00,7.859039783477783203e+00
2.119999885559082031e+00,7.019932746887207031e+00
2.160000085830688477e+00,8.106547355651855469e+00
2.200000047683715820e+00,8.371822357177734375e+00
2.240000009536743164e+00,9.533455848693847656e+00
2.279999971389770508e+00,1.089001464843750000e+01
2.319999933242797852e+00,1.255878639221191406e+01
2.360000133514404297e+00,1.416483116149902344e+01
2.400000095367431641e+00,1.569199562072753906e+01
2.440000057220458984e+00,1.742195701599121094e+01
2.480000019073486328e+00,1.944809150695800781e+01
2.519999980926513672e+00,2.189855384826660156e+01
2.559999942779541016e+00,2.458571243286132812e+01
2.599999904632568359e+00,2.700437736511230469e+01
2.639999866485595703e+00,2.736901855468750000e+01
2.679999828338623047e+00,2.977218437194824219e+01
2.720000028610229492e+00,3.235813522338867188e+01
2.759999990463256836e+00,3.515347290039062500e+01
2.799999952316284180e+00,3.816065597534179688e+01
2.840000152587890625e+00,4.126254272460937500e+01
2.880000114440917969e+00,4.391947937011718750e+01
2.920000076293945312e+00,4.669828796386718750e+01
2.960000038146972656e+00,4.964154052734375000e+01
3.000000000000000000e+00,5.281333923339843750e+01
3.039999961853027344e+00,5.455102539062500000e+01
3.079999923706054688e+00,5.775389099121093750e+01
3.119999885559082031e+00,6.107175445556640625e+01
3.159999847412109375e+00,6.380980682373046875e+01
3.199999809265136719e+00,6.663627624511718750e+01
3.240000009536743164e+00,6.955513000488281250e+01
3.279999971389770508e+00,7.156036376953125000e+01
3.319999933242797852e+00,7.560266876220703125e+01
3.360000133514404297e+00,7.984555816650390625e+01
3.400000095367431641e+00,8.427969360351562500e+01
3.440000057220458984e+00,8.756652832031250000e+01
3.480000019073486328e+00,8.988284301757812500e+01
3.519999980926513672e+00,8.993728637695312500e+01
3.559999942779541016e+00,9.228096771240234375e+01
3.599999904632568359e+00,9.467204284667968750e+01
3.639999866485595703e+00,9.708683013916015625e+01
3.679999828338623047e+00,9.953284454345703125e+01
3.719999790191650391e+00,1.007918701171875000e+02
3.759999752044677734e+00,1.033084945678710938e+02
3.800000190734863281e+00,1.054882736206054688e+02
3.840000152587890625e+00,1.074163055419921875e+02
3.880000114440917969e+00,1.093481979370117188e+02
3.920000076293945312e+00,1.118831710815429688e+02
3.960000038146972656e+00,1.146507339477539062e+02
4.000000000000000000e+00,1.167546310424804688e+02
4.039999961853027344e+00,1.194670104980468750e+02
4.079999923706054688e+00,1.222155075073242188e+02
4.119999885559082031e+00,1.250015716552734375e+02
4.159999847412109375e+00,1.277892456054687500e+02
4.199999809265136719e+00,1.301588287353515625e+02
4.239999771118164062e+00,1.325431365966796875e+02
4.279999732971191406e+00,1.349477539062500000e+02
4.320000171661376953e+00,1.351110076904296875e+02
4.360000133514404297e+00,1.365012054443359375e+02
4.400000095367431641e+00,1.385026245117187500e+02
4.440000057220458984e+00,1.405122375488281250e+02
4.480000019073486328e+00,1.425361785888671875e+02
4.519999980926513672e+00,1.445710449218750000e+02
4.559999942779541016e+00,1.466099853515625000e+02
4.599999904632568359e+00,1.467815399169921875e+02
4.639999866485595703e+00,1.484771881103515625e+02
4.679999828338623047e+00,1.500935668945312500e+02
4.719999790191650391e+00,1.517106933593750000e+02
4.759999752044677734e+00,1.533292083740234375e+02
4.799999713897705078e+00,1.549446716308593750e+02
4.840000152587890625e+00,1.565536499023437500e+02
4.880000114440917969e+00,1.581607055664062500e+02
4.920000076293945312e+00,1.589843139648437500e+02
4.960000038146972656e+00,1.605928039550781250e+02
5.000000000000000000e+00,1.621604156494140625e+02
5.039999961853027344e+00,1.638228454589843750e+02
5.079999923706054688e+00,1.653632354736328125e+02
5.119999885559082031e+00,1.669014587402343750e+02
5.159999847412109375e+00,1.684373779296875000e+02
5.199999809265136719e+00,1.699680175781250000e+02
5.239999771118164062e+00,1.714948120117187500e+02
5.279999732971191406e+00,1.730217285156250000e+02
5.320000171661376953e+00,1.745495300292968750e+02
5.360000133514404297e+00,1.760778503417968750e+02
5.400000095367431641e+00,1.776033782958984375e+02
5.440000057220458984e+00,1.791248779296875000e+02
5.480000019073486328e+00,1.806466064453125000e+02
5.519999980926513672e+00,1.821700744628906250e+02
5.559999942779541016e+00,1.835676727294921875e+02
5.599999904632568359e+00,1.848329620361328125e+02
5.639999866485595703e+00,1.860946350097656250e+02
5.679999828338623047e+00,1.873540496826171875e+02
5.719999790191650391e+00,1.886110076904296875e+02
5.759999752044677734e+00,1.898654174804687500e+02
5.799999713897705078e+00,1.911013183593750000e+02
5.839999675750732422e+00,1.923195648193359375e+02
5.879999637603759766e+00,1.935357666015625000e+02
5.919999599456787109e+00,1.947500457763671875e+02
5.960000038146972656e+00,1.959621124267578125e+02
6.000000000000000000e+00,1.970673065185546875e+02
6.039999961853027344e+00,1.980633239746093750e+02
6.079999923706054688e+00,1.990554351806640625e+02
6.119999885559082031e+00,1.999481353759765625e+02
6.159999847412109375e+00,2.007722778320312500e+02
6.199999809265136719e+00,2.015994262695312500e+02
6.239999771118164062e+00,2.024293212890625000e+02
6.279999732971191406e+00,2.032550964355468750e+02
6.319999694824218750e+00,2.040768127441406250e+02
6.359999656677246094e+00,2.048942108154296875e+02
6.399999618530273438e+00,2.057025299072265625e+02
6.439999580383300781e+00,2.065018615722656250e+02
6.480000019073486328e+00,2.072969970703125000e+02
6.519999980926513672e+00,2.080885162353515625e+02
6.559999942779541016e+00,2.088761444091796875e+02
6.599999904632568359e+00,2.096552734375000000e+02
6.639999866485595703e+00,2.104257202148437500e+02
6.679999828338623047e+00,2.111928710937500000e+02
6.719999790191650391e+00,2.119130249023437500e+02
6.759999752044677734e+00,2.125389862060546875e+02
6.799999713897705078e+00,2.131510314941406250e+02
6.839999675750732422e+00,2.137495269775390625e+02
6.879999637603759766e+00,2.143444213867187500e+02
6.919999599456787109e+00,2.149354705810546875e+02
6.959999561309814453e+00,2.155229187011718750e+02
7.000000000000000000e+00,2.160606536865234375e+02
7.039999961853027344e+00,2.165481719970703125e+02
7.079999923706054688e+00,2.170331420898437500e+02
7.119999885559082031e+00,2.163636474609375000e+02
7.159999847412109375e+00,2.168321228027343750e+02
7.199999809265136719e+00,2.173025054931640625e+02
7.239999771118164062e+00,2.177747802734375000e+02
7.279999732971191406e+00,2.182438354492187500e+02
7.319999694824218750e+00,2.187225952148437500e+02
7.359999656677246094e+00,2.191979217529296875e+02
7.399999618530273438e+00,2.196590881347656250e+02
7.439999580383300781e+00,2.201056060791015625e+02
7.479999542236328125e+00,2.205496215820312500e+02
7.519999980926513672e+00,2.209645080566406250e+02
7.559999942779541016e+00,2.213764190673828125e+02
7.599999904632568359e+00,2.217726440429687500e+02
7.639999866485595703e+00,2.221531219482421875e+02
7.679999828338623047e+00,2.225305023193359375e+02
7.719999790191650391e+00,2.229312286376953125e+02
7.759999752044677734e+00,2.233296203613281250e+02
7.799999713897705078e+00,2.237086334228515625e+02
7.839999675750732422e+00,2.240680847167968750e+02
7.879999637603759766e+00,2.244251403808593750e+02
7.919999599456787109e+00,2.247665405273437500e+02
7.959999561309814453e+00,2.251051940917968750e+02
7.999999523162841797e+00,2.253952026367187500e+02
8.039999961853027344e+00,2.256360168457031250e+02
8.079999923706054688e+00,2.258742828369140625e+02
8.119999885559082031e+00,2.261107330322265625e+02
8.159999847412109375e+00,2.262832183837890625e+02
8.199999809265136719e+00,2.264154510498046875e+02
8.239999771118164062e+00,2.265419311523437500e+02
8.279999732971191406e+00,2.267702941894531250e+02
8.319999694824218750e+00,2.270104827880859375e+02
8.359999656677246094e+00,2.272483520507812500e+02
8.399999618530273438e+00,2.274419555664062500e+02
8.439999580383300781e+00,2.275911865234375000e+02
8.479999542236328125e+00,2.277376098632812500e+02
8.520000457763671875e+00,2.278669891357421875e+02
8.560000419616699219e+00,2.279937744140625000e+02
8.600000381469726562e+00,2.280759582519531250e+02
8.640000343322753906e+00,2.281132965087890625e+02
8.680000305175781250e+00,2.281478271484375000e+02
8.720000267028808594e+00,2.281935424804687500e+02
8.760000228881835938e+00,2.282369079589843750e+02
8.800000190734863281e+00,2.282406311035156250e+02
8.840000152587890625e+00,2.282045288085937500e+02
8.880000114440917969e+00,2.281660461425781250e+02
8.920000076293945312e+00,2.281124267578125000e+02
8.960000038146972656e+00,2.280230255126953125e+02
9.000000000000000000e+00,2.278780517578125000e+02
9.039999961853027344e+00,2.276956634521484375e+02
9.079999923706054688e+00,2.275106201171875000e+02
9.119999885559082031e+00,2.273600311279296875e+02
9.159999847412109375e+00,2.273267211914062500e+02
9.199999809265136719e+00,2.272577209472656250e+02
9.239999771118164062e+00,2.271530914306640625e+02
9.279999732971191406e+00,2.270452117919921875e+02
9.319999694824218750e+00,2.269366455078125000e+02
9.359999656677246094e+00,2.268248291015625000e+02
9.399999618530273438e+00,2.266677093505859375e+02
9.439999580383300781e+00,2.264654998779296875e+02
9.479999542236328125e+00,2.262601165771484375e+02
9.519999504089355469e+00,2.260587463378906250e+02
9.560000419616699219e+00,2.258544158935546875e+02
9.600000381469726562e+00,2.255362243652343750e+02
9.640000343322753906e+00,2.251247863769531250e+02
9.680000305175781250e+00,2.247720489501953125e+02
9.720000267028808594e+00,2.244082336425781250e+02
9.760000228881835938e+00,2.240411224365234375e+02
9.800000190734863281e+00,2.233213500976562500e+02
9.840000152587890625e+00,2.222419738769531250e+02
9.880000114440917969e+00,2.211385040283203125e+02
9.920000076293945312e+00,2.200325622558593750e+02
9.960000038146972656e+00,2.191495819091796875e+02
1.000000000000000000e+01,2.160146636962890625e+02
1.003999996185302734e+01,2.104790649414062500e+02
1.007999992370605469e+01,2.049546203613281250e+02
1.011999988555908203e+01,1.994299926757812500e+02
1.015999984741210938e+01,1.939188537597656250e+02
1.019999980926513672e+01,1.879122772216796875e+02
1.023999977111816406e+01,1.880128021240234375e+02
1.027999973297119141e+01,1.881073455810546875e+02
1.032000064849853516e+01,1.882067565917968750e+02
1.036000061035156250e+01,1.883005828857421875e+02
1.040000057220458984e+01,1.891072235107421875e+02
1.044000053405761719e+01,1.903560028076171875e+02
1.048000049591064453e+01,1.907642211914062500e+02
1.052000045776367188e+01,1.911758270263671875e+02
1.056000041961669922e+01,1.915832519531250000e+02
1.060000038146972656e+01,1.914913482666015625e+02
1.064000034332275391e+01,1.909025268554687500e+02
1.068000030517578125e+01,1.903129882812500000e+02
1.072000026702880859e+01,1.897155456542968750e+02
1.076000022888183594e+01,1.891174163818359375e+02
1.080000019073486328e+01,1.884218139648437500e+02
1.084000015258789062e+01,1.876161193847656250e+02
1.088000011444091797e+01,1.868048553466796875e+02
1.092000007629394531e+01,1.859835510253906250e+02
1.096000003814697266e+01,1.851629638671875000e+02
1.100000000000000000e+01,1.842510070800781250e+02
1.103999996185302734e+01,1.832483978271484375e+02
1.107999992370605469e+01,1.822479095458984375e+02
1.111999988555908203e+01,1.820148315429687500e+02
1.115999984741210938e+01,1.817804260253906250e+02
1.119999980926513672e+01,1.811203918457031250e+02
1.123999977111816406e+01,1.800346374511718750e+02
1.127999973297119141e+01,1.789479064941406250e+02
1.131999969482421875e+01,1.778382110595703125e+02
1.136000061035156250e+01,1.767281494140625000e+02
1.140000057220458984e+01,1.747543334960937500e+02
1.144000053405761719e+01,1.719160766601562500e+02
1.148000049591064453e+01,1.690758819580078125e+02
1.152000045776367188e+01,1.661033935546875000e+02
1.156000041961669922e+01,1.585721130371093750e+02
1.160000038146972656e+01,1.564268493652343750e+02
1.164000034332275391e+01,1.557720336914062500e+02
1.168000030517578125e+01,1.551132507324218750e+02
1.172000026702880859e+01,1.544423217773437500e+02
1.176000022888183594e+01,1.537656402587890625e+02
1.180000019073486328e+01,1.530102233886718750e+02
1.184000015258789062e+01,1.521796264648437500e+02
1.188000011444091797e+01,1.513496093750000000e+02
1.192000007629394531e+01,1.505149536132812500e+02
1.196000003814697266e+01,1.496762847900390625e+02
1.200000000000000000e+01,1.487257690429687500e+02
1.203999996185302734e+01,1.476645050048828125e+02
1.207999992370605469e+01,1.469105834960937500e+02
1.211999988555908203e+01,1.470579528808593750e+02
1.215999984741210938e+01,1.472045135498046875e+02
1.219999980926513672e+01,1.472875061035156250e+02
1.223999977111816406e+01,1.473065490722656250e+02
1.227999973297119141e+01,1.473248901367187500e+02
1.231999969482421875e+01,1.473337249755859375e+02
1.236000061035156250e+01,1.473418273925781250e+02
1.240000057220458984e+01,1.472569885253906250e+02
1.244000053405761719e+01,1.470795898437500000e+02
1.248000049591064453e+01,1.469014587402343750e+02
1.252000045776367188e+01,1.467233581542968750e+02
1.256000041961669922e+01,1.465448608398437500e+02
1.260000038146972656e+01,1.463139953613281250e+02
1.264000034332275391e+01,1.460307006835937500e+02
1.268000030517578125e+01,1.457473754882812500e+02
1.272000026702880859e+01,1.454626007080078125e+02
1.276000022888183594e+01,1.451775970458984375e+02
1.280000019073486328e+01,1.448586730957031250e+02
1.284000015258789062e+01,1.445057983398437500e+02
1.288000011444091797e+01,1.441533508300781250e+02
1.292000007629394531e+01,1.437927551269531250e+02
1.296000003814697266e+01,1.434320678710937500e+02
1.300000000000000000e+01,1.429229278564453125e+02
1.303999996185302734e+01,1.422660827636718750e+02
1.307999992370605469e+01,1.416102600097656250e+02
1.311999988555908203e+01,1.409677276611328125e+02
1.315999984741210938e+01,1.403242492675781250e+02
1.319999980926513672e+01,1.395986022949218750e+02
1.323999977111816406e+01,1.387918548583984375e+02
1.327999973297119141e+01,1.379448089599609375e+02
1.331999969482421875e+01,1.357872924804687500e+02
1.335999965667724609e+01,1.350095367431640625e+02
1.340000057220458984e+01,1.344628906250000000e+02
1.344000053405761719e+01,1.340907897949218750e+02
1.348000049591064453e+01,1.337182312011718750e+02
1.352000045776367188e+01,1.333454437255859375e+02
1.356000041961669922e+01,1.329725036621093750e+02
1.360000038146972656e+01,1.325533142089843750e+02
1.364000034332275391e+01,1.320881195068359375e+02
1.368000030517578125e+01,1.316224212646484375e+02
1.372000026702880859e+01,1.311569061279296875e+02
1.376000022888183594e+01,1.306911621093750000e+02
1.380000019073486328e+01,1.301903381347656250e+02
1.384000015258789062e+01,1.291858062744140625e+02
1.388000011444091797e+01,1.286578063964843750e+02
1.392000007629394531e+01,1.283699493408203125e+02
1.396000003814697266e+01,1.280828552246093750e+02
1.400000000000000000e+01,1.278212127685546875e+02
1.403999996185302734e+01,1.275852813720703125e+02
1.407999992370605469e+01,1.273490600585937500e+02
1.411999988555908203e+01,1.271129455566406250e+02
1.415999984741210938e+01,1.268764114379882812e+02
1.419999980926513672e+01,1.266361999511718750e+02
1.423999977111816406e+01,1.263921127319335938e+02
1.427999973297119141e+01,1.261476211547851562e+02
1.431999969482421875e+01,1.259028320312500000e+02
1.435999965667724609e+01,1.256577758789062500e+02
1.439999961853027344e+01,1.253985366821289062e+02
1.444000053405761719e+01,1.251212005615234375e+02
1.448000049591064453e+01,1.248438339233398438e+02
1.452000045776367188e+01,1.245739669799804688e+02
1.456000041961669922e+01,1.243038635253906250e+02
1.460000038146972656e+01,1.240306091308593750e+02
1.464000034332275391e+01,1.237543563842773438e+02
1.468000030517578125e+01,1.234779815673828125e+02
1.472000026702880859e+01,1.231866912841796875e+02
1.476000022888183594e+01,1.228953170776367188e+02
1.480000019073486328e+01,1.226016921997070312e+02
1.484000015258789062e+01,1.223057708740234375e+02
1.488000011444091797e+01,1.220095520019531250e+02
1.492000007629394531e+01,1.217208404541015625e+02
1.496000003814697266e+01,1.214320373535156250e+02
1.500000000000000000e+01,1.211432952880859375e+02
1.503999996185302734e+01,1.208545532226562500e+02
1.507999992370605469e+01,1.205656509399414062e+02
1.511999988555908203e+01,1.202764434814453125e+02
1.515999984741210938e+01,1.199872207641601562e+02
1.519999980926513672e+01,1.196941528320312500e+02
1.523999977111816406e+01,1.193972320556640625e+02
1.527999973297119141e+01,1.191002044677734375e+02
1.531999969482421875e+01,1.188096160888671875e+02
1.535999965667724609e+01,1.185187072753906250e+02
1.539999961853027344e+01,1.182285079956054688e+02
1.544000053405761719e+01,1.179388580322265625e+02
1.548000049591064453e+01,1.176489868164062500e+02
1.552000045776367188e+01,1.173600082397460938e+02
1.556000041961669922e+01,1.170707931518554688e+02
1.560000038146972656e+01,1.167886657714843750e+02
1.564000034332275391e+01,1.165134582519531250e+02
1.568000030517578125e+01,1.162378921508789062e+02
1.572000026702880859e+01,1.159718704223632812e+02
1.576000022888183594e+01,1.157056808471679688e+02
1.580000019073486328e+01,1.154330673217773438e+02
1.584000015258789062e+01,1.151538848876953125e+02
1.588000011444091797e+01,1.148720855712890625e+02
1.592000007629394531e+01,1.145901947021484375e+02
1.596000003814697266e+01,1.143082122802734375e+02
1.600000000000000000e+01,1.140252914428710938e+02
1.603999900817871094e+01,1.137416381835937500e+02
1.607999992370605469e+01,1.134576873779296875e+02
1.611999893188476562e+01,1.131666946411132812e+02
1.615999984741210938e+01,1.128753967285156250e+02
1.619999885559082031e+01,1.125839767456054688e+02
1.623999977111816406e+01,1.122922439575195312e+02
1.627999877929687500e+01,1.120004196166992188e+02
1.631999969482421875e+01,1.117219085693359375e+02
1.635999870300292969e+01,1.114432067871093750e+02
1.639999961853027344e+01,1.111641693115234375e+02
1.643999862670898438e+01,1.108849182128906250e+02
1.647999954223632812e+01,1.106054153442382812e+02
1.652000045776367188e+01,1.103236465454101562e+02
1.655999946594238281e+01,1.100417327880859375e+02
1.660000038146972656e+01,1.097594985961914062e+02
1.663999938964843750e+01,1.094771118164062500e+02
1.668000030517578125e+01,1.091945571899414062e+02
1.671999931335449219e+01,1.088994445800781250e+02
1.676000022888183594e+01,1.086040802001953125e+02
1.679999923706054688e+01,1.083085556030273438e+02
1.684000015258789062e+01,1.080130004882812500e+02
1.687999916076660156e+01,1.077171630859375000e+02
1.692000007629394531e+01,1.074338836669921875e+02
1.695999908447265625e+01,1.071503448486328125e+02
1.700000000000000000e+01,1.068680419921875000e+02
1.703999900817871094e+01,1.065870056152343750e+02
1.707999992370605469e+01,1.063058013916015625e+02
1.711999893188476562e+01,1.060184097290039062e+02
1.715999984741210938e+01,1.057308654785156250e+02
1.719999885559082031e+01,1.054433670043945312e+02
1.723999977111816406e+01,1.051558837890625000e+02
1.727999877929687500e+01,1.048291549682617188e+02
1.731999969482421875e+01,1.044946441650390625e+02
1.735999870300292969e+01,1.041604309082031250e+02
1.739999961853027344e+01,1.038264694213867188e+02
1.743999862670898438e+01,1.034922637939453125e+02
1.747999954223632812e+01,1.031571578979492188e+02
