# Start of Energy Bin (keV), Effective Area (cm^2)
1.600000023841857910e+00,1.219997525215148926e+00
1.639999985694885254e+00,1.668499231338500977e+00
1.680000066757202148e+00,2.276303768157958984e+00
1.720000028610229492e+00,3.098320007324218750e+00
1.759999990463256836e+00,4.146386146545410156e+00
1.799999952316284180e+00,5.173509120941162109e+00
1.840000033378601074e+00,2.843428373336791992e+00
1.879999995231628418e+00,3.591581344604492188e+00
1.920000076293945312e+00,4.636016845703125000e+00
1.960000038146972656e+00,5.787397861480712891e+00
2.000000000000000000e+00,7.094512939453125000e+00
2.039999961853027344e+00,8.621213912963867188e+00
2.079999923706054688e+00,1.046722316741943359e+01
2.119999885559082031e+00,9.340750694274902344e+00
2.160000085830688477e+00,1.078227043151855469e+01
2.200000047683715820e+00,1.113249778747558594e+01
2.240000009536743164e+00,1.267639732360839844e+01
2.279999971389770508e+00,1.447922706604003906e+01
2.319999933242797852e+00,1.669254302978515625e+01
2.360000133514404297e+00,1.882107353210449219e+01
2.400000095367431641e+00,2.084408760070800781e+01
2.440000057220458984e+00,2.313592720031738281e+01
2.480000019073486328e+00,2.581976699829101562e+01
2.519999980926513672e+00,2.906539535522460938e+01
2.559999942779541016e+00,3.262530136108398438e+01
2.599999904632568359e+00,3.583060455322265625e+01
2.639999866485595703e+00,3.631035995483398438e+01
2.679999828338623047e+00,3.949906539916992188e+01
2.720000028610229492e+00,4.293033981323242188e+01
2.759999990463256836e+00,4.663948822021484375e+01
2.799999952316284180e+00,5.063043975830078125e+01
2.840000152587890625e+00,5.474482727050781250e+01
2.880000114440917969e+00,5.826725006103515625e+01
2.920000076293945312e+00,6.195101165771484375e+01
2.960000038146972656e+00,6.585259246826171875e+01
3.000000000000000000e+00,7.014460754394531250e+01
3.039999961853027344e+00,7.262677764892578125e+01
3.079999923706054688e+00,7.707588958740234375e+01
3.119999885559082031e+00,8.169897460937500000e+01
3.159999847412109375e+00,8.556529235839843750e+01
3.199999809265136719e+00,8.956743621826171875e+01
3.240000009536743164e+00,9.371155548095703125e+01
3.279999971389770508e+00,9.664210510253906250e+01
3.319999933242797852e+00,1.014693984985351562e+02
3.360000133514404297e+00,1.065045776367187500e+02
3.400000095367431641e+00,1.117416229248046875e+02
3.440000057220458984e+00,1.159923171997070312e+02
3.480000019073486328e+00,1.191516036987304688e+02
3.519999980926513672e+00,1.193156967163085938e+02
3.559999942779541016e+00,1.225200729370117188e+02
3.599999904632568359e+00,1.257929840087890625e+02
3.639999866485595703e+00,1.291031494140625000e+02
3.679999828338623047e+00,1.324608764648437500e+02
3.719999790191650391e+00,1.342438812255859375e+02
3.759999752044677734e+00,1.377068939208984375e+02
3.800000190734863281e+00,1.407271575927734375e+02
3.840000152587890625e+00,1.434172515869140625e+02
3.880000114440917969e+00,1.461178741455078125e+02
3.920000076293945312e+00,1.494886779785156250e+02
3.960000038146972656e+00,1.531214904785156250e+02
4.000000000000000000e+00,1.558657684326171875e+02
4.039999961853027344e+00,1.594202117919921875e+02
4.079999923706054688e+00,1.630201568603515625e+02
4.119999885559082031e+00,1.666665496826171875e+02
4.159999847412109375e+00,1.703123474121093750e+02
4.199999809265136719e+00,1.733986511230468750e+02
4.239999771118164062e+00,1.765025939941406250e+02
4.279999732971191406e+00,1.796313323974609375e+02
4.320000171661376953e+00,1.797759857177734375e+02
4.360000133514404297e+00,1.816298980712890625e+02
4.400000095367431641e+00,1.843236236572265625e+02
4.440000057220458984e+00,1.870294799804687500e+02
4.480000019073486328e+00,1.897553253173828125e+02
4.519999980926513672e+00,1.924961700439453125e+02
4.559999942779541016e+00,1.952434692382812500e+02
4.599999904632568359e+00,1.955047149658203125e+02
4.639999866485595703e+00,1.977967224121093750e+02
4.679999828338623047e+00,1.999838867187500000e+02
4.719999790191650391e+00,2.021739196777343750e+02
4.759999752044677734e+00,2.043666534423828125e+02
4.799999713897705078e+00,2.065564117431640625e+02
4.840000152587890625e+00,2.087386474609375000e+02
4.880000114440917969e+00,2.109191436767578125e+02
4.920000076293945312e+00,2.120549926757812500e+02
4.960000038146972656e+00,2.142383422851562500e+02
5.000000000000000000e+00,2.163682861328125000e+02
5.039999961853027344e+00,2.186234130859375000e+02
5.079999923706054688e+00,2.207148132324218750e+02
5.119999885559082031e+00,2.228038787841796875e+02
5.159999847412109375e+00,2.248904724121093750e+02
5.199999809265136719e+00,2.269709930419921875e+02
5.239999771118164062e+00,2.290473327636718750e+02
5.279999732971191406e+00,2.311244354248046875e+02
5.320000171661376953e+00,2.332034301757812500e+02
5.360000133514404297e+00,2.352837219238281250e+02
5.400000095367431641e+00,2.373613128662109375e+02
5.440000057220458984e+00,2.394345703125000000e+02
5.480000019073486328e+00,2.415087432861328125e+02
5.519999980926513672e+00,2.435856018066406250e+02
5.559999942779541016e+00,2.454947357177734375e+02
5.599999904632568359e+00,2.472279510498046875e+02
5.639999866485595703e+00,2.489573516845703125e+02
5.679999828338623047e+00,2.506841888427734375e+02
5.719999790191650391e+00,2.524077911376953125e+02
5.759999752044677734e+00,2.541284942626953125e+02
5.799999713897705078e+00,2.558258666992187500e+02
5.839999675750732422e+00,2.575011596679687500e+02
5.879999637603759766e+00,2.591742248535156250e+02
5.919999599456787109e+00,2.608464050292968750e+02
5.960000038146972656e+00,2.625161132812500000e+02
6.000000000000000000e+00,2.640382690429687500e+02
6.039999961853027344e+00,2.654096984863281250e+02
6.079999923706054688e+00,2.667762145996093750e+02
6.119999885559082031e+00,2.680092163085937500e+02
6.159999847412109375e+00,2.691506042480468750e+02
6.199999809265136719e+00,2.702967224121093750e+02
6.239999771118164062e+00,2.714472656250000000e+02
6.279999732971191406e+00,2.725924987792968750e+02
6.319999694824218750e+00,2.737320861816406250e+02
6.359999656677246094e+00,2.748662414550781250e+02
6.399999618530273438e+00,2.759895324707031250e+02
6.439999580383300781e+00,2.771022033691406250e+02
6.480000019073486328e+00,2.782095031738281250e+02
6.519999980926513672e+00,2.793135681152343750e+02
6.559999942779541016e+00,2.804127502441406250e+02
6.599999904632568359e+00,2.815021362304687500e+02
6.639999866485595703e+00,2.825816040039062500e+02
6.679999828338623047e+00,2.836568908691406250e+02
6.719999790191650391e+00,2.846687011718750000e+02
6.759999752044677734e+00,2.855542602539062500e+02
6.799999713897705078e+00,2.864236145019531250e+02
6.839999675750732422e+00,2.872771301269531250e+02
6.879999637603759766e+00,2.881261291503906250e+02
6.919999599456787109e+00,2.889704284667968750e+02
6.959999561309814453e+00,2.898101196289062500e+02
7.000000000000000000e+00,2.905792236328125000e+02
7.039999961853027344e+00,2.912770080566406250e+02
7.079999923706054688e+00,2.919716491699218750e+02
7.119999885559082031e+00,2.911131591796875000e+02
7.159999847412109375e+00,2.917857666015625000e+02
7.199999809265136719e+00,2.924705810546875000e+02
7.239999771118164062e+00,2.931677551269531250e+02
7.279999732971191406e+00,2.938608398437500000e+02
7.319999694824218750e+00,2.945498962402343750e+02
7.359999656677246094e+00,2.952345581054687500e+02
7.399999618530273438e+00,2.959042663574218750e+02
7.439999580383300781e+00,2.965584411621093750e+02
7.479999542236328125e+00,2.972094421386718750e+02
7.519999980926513672e+00,2.978562011718750000e+02
7.559999942779541016e+00,2.984992980957031250e+02
7.599999904632568359e+00,2.991297607421875000e+02
7.639999866485595703e+00,2.997474670410156250e+02
7.679999828338623047e+00,3.003614196777343750e+02
7.719999790191650391e+00,3.009723205566406250e+02
7.759999752044677734e+00,3.015802917480468750e+02
7.799999713897705078e+00,3.021762695312500000e+02
7.839999675750732422e+00,3.027600097656250000e+02
7.879999637603759766e+00,3.033408508300781250e+02
7.919999599456787109e+00,3.039183959960937500e+02
7.959999561309814453e+00,3.044926757812500000e+02
7.999999523162841797e+00,3.050340270996093750e+02
8.039999961853027344e+00,3.055417785644531250e+02
8.079999923706054688e+00,3.060467834472656250e+02
8.119999885559082031e+00,3.065490722656250000e+02
8.159999847412109375e+00,3.069653015136718750e+02
8.199999809265136719e+00,3.073621215820312500e+02
8.239999771118164062e+00,3.077635192871093750e+02
8.279999732971191406e+00,3.082346191406250000e+02
8.319999694824218750e+00,3.087030944824218750e+02
8.359999656677246094e+00,3.091691284179687500e+02
8.399999618530273438e+00,3.096072998046875000e+02
8.439999580383300781e+00,3.100177612304687500e+02
8.479999542236328125e+00,3.104252929687500000e+02
8.520000457763671875e+00,3.108309020996093750e+02
8.560000419616699219e+00,3.112339172363281250e+02
8.600000381469726562e+00,3.115943603515625000e+02
8.640000343322753906e+00,3.119119873046875000e+02
8.680000305175781250e+00,3.122268371582031250e+02
8.720000267028808594e+00,3.125390319824218750e+02
8.760000228881835938e+00,3.128489990234375000e+02
8.800000190734863281e+00,3.131020507812500000e+02
8.840000152587890625e+00,3.132978515625000000e+02
8.880000114440917969e+00,3.134914245605468750e+02
8.920000076293945312e+00,3.136830444335937500e+02
8.960000038146972656e+00,3.138264770507812500e+02
9.000000000000000000e+00,3.138793334960937500e+02
9.039999961853027344e+00,3.138664855957031250e+02
9.079999923706054688e+00,3.138507690429687500e+02
9.119999885559082031e+00,3.138502197265625000e+02
9.159999847412109375e+00,3.139369506835937500e+02
9.199999809265136719e+00,3.139541931152343750e+02
9.239999771118164062e+00,3.139020385742187500e+02
9.279999732971191406e+00,3.138464965820312500e+02
9.319999694824218750e+00,3.137883300781250000e+02
9.359999656677246094e+00,3.137267761230468750e+02
9.399999618530273438e+00,3.135887756347656250e+02
9.439999580383300781e+00,3.133745727539062500e+02
9.479999542236328125e+00,3.131571044921875000e+02
9.519999504089355469e+00,3.129363403320312500e+02
9.560000419616699219e+00,3.127127685546875000e+02
9.600000381469726562e+00,3.123297729492187500e+02
9.640000343322753906e+00,3.118160400390625000e+02
9.680000305175781250e+00,3.113848266601562500e+02
9.720000267028808594e+00,3.109506835937500000e+02
9.760000228881835938e+00,3.105130920410156250e+02
9.800000190734863281e+00,3.096414489746093750e+02
9.840000152587890625e+00,3.083262329101562500e+02
9.880000114440917969e+00,3.069788818359375000e+02
9.920000076293945312e+00,3.056296997070312500e+02
9.960000038146972656e+00,3.047289733886718750e+02
1.000000000000000000e+01,3.009224548339843750e+02
1.003999996185302734e+01,2.938830566406250000e+02
1.007999992370605469e+01,2.868300781250000000e+02
1.011999988555908203e+01,2.797643737792968750e+02
1.015999984741210938e+01,2.726869201660156250e+02
1.019999980926513672e+01,2.649075317382812500e+02
1.023999977111816406e+01,2.650656433105468750e+02
1.027999973297119141e+01,2.652149353027343750e+02
1.032000064849853516e+01,2.653559875488281250e+02
1.036000061035156250e+01,2.654887390136718750e+02
1.040000057220458984e+01,2.665930786132812500e+02
1.044000053405761719e+01,2.682886047363281250e+02
1.048000049591064453e+01,2.688046264648437500e+02
1.052000045776367188e+01,2.693200378417968750e+02
1.056000041961669922e+01,2.698300476074218750e+02
1.060000038146972656e+01,2.697208251953125000e+02
1.064000034332275391e+01,2.689953613281250000e+02
1.068000030517578125e+01,2.682688903808593750e+02
1.072000026702880859e+01,2.675365600585937500e+02
1.076000022888183594e+01,2.668031921386718750e+02
1.080000019073486328e+01,2.659517517089843750e+02
1.084000015258789062e+01,2.649640502929687500e+02
1.088000011444091797e+01,2.639678344726562500e+02
1.092000007629394531e+01,2.629721984863281250e+02
1.096000003814697266e+01,2.619768066406250000e+02
1.100000000000000000e+01,2.608713073730468750e+02
1.103999996185302734e+01,2.596561584472656250e+02
1.107999992370605469e+01,2.584426574707031250e+02
1.111999988555908203e+01,2.582437133789062500e+02
1.115999984741210938e+01,2.580426025390625000e+02
1.119999980926513672e+01,2.573136291503906250e+02
1.123999977111816406e+01,2.560549011230468750e+02
1.127999973297119141e+01,2.547920074462890625e+02
1.131999969482421875e+01,2.535244293212890625e+02
1.136000061035156250e+01,2.522531127929687500e+02
1.140000057220458984e+01,2.497176666259765625e+02
1.144000053405761719e+01,2.459136199951171875e+02
1.148000049591064453e+01,2.420988616943359375e+02
1.152000045776367188e+01,2.380513000488281250e+02
1.156000041961669922e+01,2.273126525878906250e+02
1.160000038146972656e+01,2.242781829833984375e+02
1.164000034332275391e+01,2.233747711181640625e+02
1.168000030517578125e+01,2.224653320312500000e+02
1.172000026702880859e+01,2.215470886230468750e+02
1.176000022888183594e+01,2.206201324462890625e+02
1.180000019073486328e+01,2.196325225830078125e+02
1.184000015258789062e+01,2.185887451171875000e+02
1.188000011444091797e+01,2.175444488525390625e+02
1.192000007629394531e+01,2.164950714111328125e+02
1.196000003814697266e+01,2.154385528564453125e+02
1.200000000000000000e+01,2.142248229980468750e+02
1.203999996185302734e+01,2.128551177978515625e+02
1.207999992370605469e+01,2.118781127929687500e+02
1.211999988555908203e+01,2.120389709472656250e+02
1.215999984741210938e+01,2.121987457275390625e+02
1.219999980926513672e+01,2.122898559570312500e+02
1.223999977111816406e+01,2.123118286132812500e+02
1.227999973297119141e+01,2.123327331542968750e+02
1.231999969482421875e+01,2.123607330322265625e+02
1.236000061035156250e+01,2.123876800537109375e+02
1.240000057220458984e+01,2.122992858886718750e+02
1.244000053405761719e+01,2.120960998535156250e+02
1.248000049591064453e+01,2.118917388916015625e+02
1.252000045776367188e+01,2.116826629638671875e+02
1.256000041961669922e+01,2.114729309082031250e+02
1.260000038146972656e+01,2.111925506591796875e+02
1.264000034332275391e+01,2.108414154052734375e+02
1.268000030517578125e+01,2.104900360107421875e+02
1.272000026702880859e+01,2.101337585449218750e+02
1.276000022888183594e+01,2.097769775390625000e+02
1.280000019073486328e+01,2.093720703125000000e+02
1.284000015258789062e+01,2.089190063476562500e+02
1.288000011444091797e+01,2.084662933349609375e+02
1.292000007629394531e+01,2.080213623046875000e+02
1.296000003814697266e+01,2.075759277343750000e+02
1.300000000000000000e+01,2.069096832275390625e+02
1.303999996185302734e+01,2.060234527587890625e+02
1.307999992370605469e+01,2.051382293701171875e+02
1.311999988555908203e+01,2.042384338378906250e+02
1.315999984741210938e+01,2.033370666503906250e+02
1.319999980926513672e+01,2.023085937500000000e+02
1.323999977111816406e+01,2.011546783447265625e+02
1.327999973297119141e+01,1.998343811035156250e+02
1.331999969482421875e+01,1.966307678222656250e+02
1.335999965667724609e+01,1.954000701904296875e+02
1.340000057220458984e+01,1.945306091308593750e+02
1.344000053405761719e+01,1.939487304687500000e+02
1.348000049591064453e+01,1.933664245605468750e+02
1.352000045776367188e+01,1.927801666259765625e+02
1.356000041961669922e+01,1.921939392089843750e+02
1.360000038146972656e+01,1.915429229736328125e+02
1.364000034332275391e+01,1.908274688720703125e+02
1.368000030517578125e+01,1.901116333007812500e+02
1.372000026702880859e+01,1.893962554931640625e+02
1.376000022888183594e+01,1.886808776855468750e+02
1.380000019073486328e+01,1.879077453613281250e+02
1.384000015258789062e+01,1.864007873535156250e+02
1.388000011444091797e+01,1.855887451171875000e+02
1.392000007629394531e+01,1.851254425048828125e+02
1.396000003814697266e+01,1.846634826660156250e+02
1.400000000000000000e+01,1.842442626953125000e+02
1.403999996185302734e+01,1.838681945800781250e+02
1.407999992370605469e+01,1.834918212890625000e+02
1.411999988555908203e+01,1.831147766113281250e+02
1.415999984741210938e+01,1.827372741699218750e+02
1.419999980926513672e+01,1.823565216064453125e+02
1.423999977111816406e+01,1.819722137451171875e+02
1.427999973297119141e+01,1.815874328613281250e+02
1.431999969482421875e+01,1.812028045654296875e+02
1.435999965667724609e+01,1.808179016113281250e+02
1.439999961853027344e+01,1.804127502441406250e+02
1.444000053405761719e+01,1.799817047119140625e+02
1.448000049591064453e+01,1.795507812500000000e+02
1.452000045776367188e+01,1.791200561523437500e+02
1.456000041961669922e+01,1.786891479492187500e+02
1.460000038146972656e+01,1.782533569335937500e+02
1.464000034332275391e+01,1.778128967285156250e+02
1.468000030517578125e+01,1.773724517822265625e+02
1.472000026702880859e+01,1.769320373535156250e+02
1.476000022888183594e+01,1.764916687011718750e+02
1.480000019073486328e+01,1.760485229492187500e+02
1.484000015258789062e+01,1.756025390625000000e+02
1.488000011444091797e+01,1.751562347412109375e+02
1.492000007629394531e+01,1.747098999023437500e+02
1.496000003814697266e+01,1.742636108398437500e+02
1.500000000000000000e+01,1.738164978027343750e+02
1.503999996185302734e+01,1.733684844970703125e+02
1.507999992370605469e+01,1.729204101562500000e+02
1.511999988555908203e+01,1.724723510742187500e+02
1.515999984741210938e+01,1.720244293212890625e+02
1.519999980926513672e+01,1.715718231201171875e+02
1.523999977111816406e+01,1.711144714355468750e+02
1.527999973297119141e+01,1.706571044921875000e+02
1.531999969482421875e+01,1.701995697021484375e+02
1.535999965667724609e+01,1.697417907714843750e+02
1.539999961853027344e+01,1.692848510742187500e+02
1.544000053405761719e+01,1.688285217285156250e+02
1.548000049591064453e+01,1.683721313476562500e+02
1.552000045776367188e+01,1.679162597656250000e+02
1.556000041961669922e+01,1.674602813720703125e+02
1.560000038146972656e+01,1.670142669677734375e+02
1.564000034332275391e+01,1.665779724121093750e+02
1.568000030517578125e+01,1.661413879394531250e+02
1.572000026702880859e+01,1.657552337646484375e+02
1.576000022888183594e+01,1.653692474365234375e+02
1.580000019073486328e+01,1.649745635986328125e+02
1.584000015258789062e+01,1.645709228515625000e+02
1.588000011444091797e+01,1.641635742187500000e+02
1.592000007629394531e+01,1.637558288574218750e+02
1.596000003814697266e+01,1.633480072021484375e+02
1.600000000000000000e+01,1.629411010742187500e+02
1.603999900817871094e+01,1.625354309082031250e+02
1.607999992370605469e+01,1.621293029785156250e+02
1.611999893188476562e+01,1.617229003906250000e+02
1.615999984741210938e+01,1.613160247802734375e+02
1.619999885559082031e+01,1.609089202880859375e+02
1.623999977111816406e+01,1.605013885498046875e+02
1.627999877929687500e+01,1.600936126708984375e+02
1.631999969482421875e+01,1.596854095458984375e+02
1.635999870300292969e+01,1.592769317626953125e+02
1.639999961853027344e+01,1.588680877685546875e+02
1.643999862670898438e+01,1.584589691162109375e+02
1.647999954223632812e+01,1.580495910644531250e+02
1.652000045776367188e+01,1.576467895507812500e+02
1.655999946594238281e+01,1.572438049316406250e+02
1.660000038146972656e+01,1.568403625488281250e+02
1.663999938964843750e+01,1.564367523193359375e+02
1.668000030517578125e+01,1.560328674316406250e+02
1.671999931335449219e+01,1.556289215087890625e+02
1.676000022888183594e+01,1.552245025634765625e+02
1.679999923706054688e+01,1.548197784423828125e+02
1.684000015258789062e+01,1.544149627685546875e+02
1.687999916076660156e+01,1.540095977783203125e+02
1.692000007629394531e+01,1.536042175292968750e+02
1.695999908447265625e+01,1.531984405517578125e+02
1.700000000000000000e+01,1.528028869628906250e+02
1.703999900817871094e+01,1.524175109863281250e+02
1.707999992370605469e+01,1.520318298339843750e+02
1.711999893188476562e+01,1.516459808349609375e+02
1.715999984741210938e+01,1.512597961425781250e+02
1.719999885559082031e+01,1.508735961914062500e+02
1.723999977111816406e+01,1.504873046875000000e+02
1.727999877929687500e+01,1.500659637451171875e+02
1.731999969482421875e+01,1.496337585449218750e+02
1.735999870300292969e+01,1.492017211914062500e+02
1.739999961853027344e+01,1.487698059082031250e+02
1.743999862670898438e+01,1.483372955322265625e+02
1.747999954223632812e+01,1.479032592773437500e+02
