# Start of Energy Bin (keV), Effective Area (cm^2)
1.600000023841857910e+00,8.721917271614074707e-01
1.639999985694885254e+00,1.213177919387817383e+00
1.680000066757202148e+00,1.681174397468566895e+00
1.720000028610229492e+00,2.321562767028808594e+00
1.759999990463256836e+00,3.148823022842407227e+00
1.799999952316284180e+00,3.977794408798217773e+00
1.840000033378601074e+00,2.211426258087158203e+00
1.879999995231628418e+00,2.823701858520507812e+00
1.920000076293945312e+00,3.682537078857421875e+00
1.960000038146972656e+00,4.641583442687988281e+00
2.000000000000000000e+00,5.741795539855957031e+00
2.039999961853027344e+00,7.037185192108154297e+00
2.079999923706054688e+00,8.612329483032226562e+00
2.119999885559082031e+00,7.842502117156982422e+00
2.160000085830688477e+00,9.112080574035644531e+00
2.200000047683715820e+00,9.510442733764648438e+00
2.240000009536743164e+00,1.089668369293212891e+01
2.279999971389770508e+00,1.251915073394775391e+01
2.319999933242797852e+00,1.451305961608886719e+01
2.360000133514404297e+00,1.645047569274902344e+01
2.400000095367431641e+00,1.830977821350097656e+01
2.440000057220458984e+00,2.041595649719238281e+01
2.480000019073486328e+00,2.287740707397460938e+01
2.519999980926513672e+00,2.584222030639648438e+01
2.559999942779541016e+00,2.910192298889160156e+01
2.599999904632568359e+00,3.205941390991210938e+01
2.639999866485595703e+00,3.268371582031250000e+01
2.679999828338623047e+00,3.565028381347656250e+01
2.720000028610229492e+00,3.884680557250976562e+01
2.759999990463256836e+00,4.230537414550781250e+01
2.799999952316284180e+00,4.603162384033203125e+01
2.840000152587890625e+00,4.988245773315429688e+01
2.880000114440917969e+00,5.320377349853515625e+01
2.920000076293945312e+00,5.668164825439453125e+01
2.960000038146972656e+00,6.036634445190429688e+01
3.000000000000000000e+00,6.440280151367187500e+01
3.039999961853027344e+00,6.685572814941406250e+01
3.079999923706054688e+00,7.105171966552734375e+01
3.119999885559082031e+00,7.541508483886718750e+01
3.159999847412109375e+00,7.908514404296875000e+01
3.199999809265136719e+00,8.288467407226562500e+01
3.240000009536743164e+00,8.681979370117187500e+01
3.279999971389770508e+00,8.968748474121093750e+01
3.319999933242797852e+00,9.434091186523437500e+01
3.360000133514404297e+00,9.919915771484375000e+01
3.400000095367431641e+00,1.042563705444335938e+02
3.440000057220458984e+00,1.083508987426757812e+02
3.480000019073486328e+00,1.114112091064453125e+02
3.519999980926513672e+00,1.074275665283203125e+02
3.559999942779541016e+00,1.104679260253906250e+02
3.599999904632568359e+00,1.136250762939453125e+02
3.639999866485595703e+00,1.168291778564453125e+02
3.679999828338623047e+00,1.200846252441406250e+02
3.719999790191650391e+00,1.196772842407226562e+02
3.759999752044677734e+00,1.230351409912109375e+02
3.800000190734863281e+00,1.259829788208007812e+02
3.840000152587890625e+00,1.286475219726562500e+02
3.880000114440917969e+00,1.313225402832031250e+02
3.920000076293945312e+00,1.346148681640625000e+02
3.960000038146972656e+00,1.381487274169921875e+02
4.000000000000000000e+00,1.397033233642578125e+02
4.039999961853027344e+00,1.431650085449218750e+02
4.079999923706054688e+00,1.466691131591796875e+02
4.119999885559082031e+00,1.502164459228515625e+02
4.159999847412109375e+00,1.537666015625000000e+02
4.199999809265136719e+00,1.568140716552734375e+02
4.239999771118164062e+00,1.598796539306640625e+02
4.279999732971191406e+00,1.629713439941406250e+02
4.320000171661376953e+00,1.592310943603515625e+02
4.360000133514404297e+00,1.598934173583984375e+02
4.400000095367431641e+00,1.625916748046875000e+02
4.440000057220458984e+00,1.653081054687500000e+02
4.480000019073486328e+00,1.680574798583984375e+02
4.519999980926513672e+00,1.708280334472656250e+02
4.559999942779541016e+00,1.735968933105468750e+02
4.599999904632568359e+00,1.712681579589843750e+02
4.639999866485595703e+00,1.737878570556640625e+02
4.679999828338623047e+00,1.760694427490234375e+02
4.719999790191650391e+00,1.783515625000000000e+02
4.759999752044677734e+00,1.806359863281250000e+02
4.799999713897705078e+00,1.829229125976562500e+02
4.840000152587890625e+00,1.852005462646484375e+02
4.880000114440917969e+00,1.874752044677734375e+02
4.920000076293945312e+00,1.873955078125000000e+02
4.960000038146972656e+00,1.896704864501953125e+02
5.000000000000000000e+00,1.918960266113281250e+02
5.039999961853027344e+00,1.942304534912109375e+02
5.079999923706054688e+00,1.964160766601562500e+02
5.119999885559082031e+00,1.985953979492187500e+02
5.159999847412109375e+00,2.007699584960937500e+02
5.199999809265136719e+00,2.029371185302734375e+02
5.239999771118164062e+00,2.050988464355468750e+02
5.279999732971191406e+00,2.072611236572265625e+02
5.320000171661376953e+00,2.094235229492187500e+02
5.360000133514404297e+00,2.115863647460937500e+02
5.400000095367431641e+00,2.137454681396484375e+02
5.440000057220458984e+00,2.158985595703125000e+02
5.480000019073486328e+00,2.180501708984375000e+02
5.519999980926513672e+00,2.202005157470703125e+02
5.559999942779541016e+00,2.221973266601562500e+02
5.599999904632568359e+00,2.240319976806640625e+02
5.639999866485595703e+00,2.258602905273437500e+02
5.679999828338623047e+00,2.276839294433593750e+02
5.719999790191650391e+00,2.295041503906250000e+02
5.759999752044677734e+00,2.313199310302734375e+02
5.799999713897705078e+00,2.331124877929687500e+02
5.839999675750732422e+00,2.348830108642578125e+02
5.879999637603759766e+00,2.366488037109375000e+02
5.919999599456787109e+00,2.384098968505859375e+02
5.960000038146972656e+00,2.401660614013671875e+02
6.000000000000000000e+00,2.417849121093750000e+02
6.039999961853027344e+00,2.432633209228515625e+02
6.079999923706054688e+00,2.447345123291015625e+02
6.119999885559082031e+00,2.460805664062500000e+02
6.159999847412109375e+00,2.473393402099609375e+02
6.199999809265136719e+00,2.485993347167968750e+02
6.239999771118164062e+00,2.498612670898437500e+02
6.279999732971191406e+00,2.511157073974609375e+02
6.319999694824218750e+00,2.523630981445312500e+02
6.359999656677246094e+00,2.536029357910156250e+02
6.399999618530273438e+00,2.548299865722656250e+02
6.439999580383300781e+00,2.560444641113281250e+02
6.480000019073486328e+00,2.572520141601562500e+02
6.519999980926513672e+00,2.584525756835937500e+02
6.559999942779541016e+00,2.596465148925781250e+02
6.599999904632568359e+00,2.608287353515625000e+02
6.639999866485595703e+00,2.619993591308593750e+02
6.679999828338623047e+00,2.631636352539062500e+02
6.719999790191650391e+00,2.642676086425781250e+02
6.759999752044677734e+00,2.652516174316406250e+02
6.799999713897705078e+00,2.662182006835937500e+02
6.839999675750732422e+00,2.671677856445312500e+02
6.879999637603759766e+00,2.681107482910156250e+02
6.919999599456787109e+00,2.690474243164062500e+02
6.959999561309814453e+00,2.699777526855468750e+02
7.000000000000000000e+00,2.708386840820312500e+02
7.039999961853027344e+00,2.716296081542968750e+02
7.079999923706054688e+00,2.724155578613281250e+02
7.119999885559082031e+00,2.717497863769531250e+02
7.159999847412109375e+00,2.725101318359375000e+02
7.199999809265136719e+00,2.732785034179687500e+02
7.239999771118164062e+00,2.740558776855468750e+02
7.279999732971191406e+00,2.748273925781250000e+02
7.319999694824218750e+00,2.755928039550781250e+02
7.359999656677246094e+00,2.763523559570312500e+02
7.399999618530273438e+00,2.770957641601562500e+02
7.439999580383300781e+00,2.778232116699218750e+02
7.479999542236328125e+00,2.785453796386718750e+02
7.519999980926513672e+00,2.792620239257812500e+02
7.559999942779541016e+00,2.799734191894531250e+02
7.599999904632568359e+00,2.806708679199218750e+02
7.639999866485595703e+00,2.813541564941406250e+02
7.679999828338623047e+00,2.820326538085937500e+02
7.719999790191650391e+00,2.827062072753906250e+02
7.759999752044677734e+00,2.833755493164062500e+02
7.799999713897705078e+00,2.840318908691406250e+02
7.839999675750732422e+00,2.846744689941406250e+02
7.879999637603759766e+00,2.853125610351562500e+02
7.919999599456787109e+00,2.859465637207031250e+02
7.959999561309814453e+00,2.865760498046875000e+02
7.999999523162841797e+00,2.871730346679687500e+02
8.039999961853027344e+00,2.877375793457031250e+02
8.079999923706054688e+00,2.882980957031250000e+02
8.119999885559082031e+00,2.888541564941406250e+02
8.159999847412109375e+00,2.893281250000000000e+02
8.199999809265136719e+00,2.897802734375000000e+02
8.239999771118164062e+00,2.902357788085937500e+02
8.279999732971191406e+00,2.907618408203125000e+02
8.319999694824218750e+00,2.912843933105468750e+02
8.359999656677246094e+00,2.918032836914062500e+02
8.399999618530273438e+00,2.922920837402343750e+02
8.439999580383300781e+00,2.927514648437500000e+02
8.479999542236328125e+00,2.932070922851562500e+02
8.520000457763671875e+00,2.936592102050781250e+02
8.560000419616699219e+00,2.941076354980468750e+02
8.600000381469726562e+00,2.945117797851562500e+02
8.640000343322753906e+00,2.948711853027343750e+02
8.680000305175781250e+00,2.952269592285156250e+02
8.720000267028808594e+00,2.955841064453125000e+02
8.760000228881835938e+00,2.959376831054687500e+02
8.800000190734863281e+00,2.962344970703125000e+02
8.840000152587890625e+00,2.964744567871093750e+02
8.880000114440917969e+00,2.967105102539062500e+02
8.920000076293945312e+00,2.969469909667968750e+02
8.960000038146972656e+00,2.971366271972656250e+02
9.000000000000000000e+00,2.972369079589843750e+02
9.039999961853027344e+00,2.972716979980468750e+02
9.079999923706054688e+00,2.973025512695312500e+02
9.119999885559082031e+00,2.973401184082031250e+02
9.159999847412109375e+00,2.974658813476562500e+02
9.199999809265136719e+00,2.975240478515625000e+02
9.239999771118164062e+00,2.975143127441406250e+02
9.279999732971191406e+00,2.975006103515625000e+02
9.319999694824218750e+00,2.974832458496093750e+02
9.359999656677246094e+00,2.974618225097656250e+02
9.399999618530273438e+00,2.973668823242187500e+02
9.439999580383300781e+00,2.971983337402343750e+02
9.479999542236328125e+00,2.970257263183593750e+02
9.519999504089355469e+00,2.968493347167968750e+02
9.560000419616699219e+00,2.966692504882812500e+02
9.600000381469726562e+00,2.962584838867187500e+02
9.640000343322753906e+00,2.956859436035156250e+02
9.680000305175781250e+00,2.953164672851562500e+02
9.720000267028808594e+00,2.949425354003906250e+02
9.760000228881835938e+00,2.945645751953125000e+02
9.800000190734863281e+00,2.937663879394531250e+02
9.840000152587890625e+00,2.925390625000000000e+02
9.880000114440917969e+00,2.912800598144531250e+02
9.920000076293945312e+00,2.900184326171875000e+02
9.960000038146972656e+00,2.891683349609375000e+02
1.000000000000000000e+01,2.855473937988281250e+02
1.003999996185302734e+01,2.788545227050781250e+02
1.007999992370605469e+01,2.721485900878906250e+02
1.011999988555908203e+01,2.654352722167968750e+02
1.015999984741210938e+01,2.587102661132812500e+02
1.019999980926513672e+01,2.513169250488281250e+02
1.023999977111816406e+01,2.515086059570312500e+02
1.027999973297119141e+01,2.516915283203125000e+02
1.032000064849853516e+01,2.518803100585937500e+02
1.036000061035156250e+01,2.520608673095703125e+02
1.040000057220458984e+01,2.531657104492187500e+02
1.044000053405761719e+01,2.548344421386718750e+02
1.048000049591064453e+01,2.553820953369140625e+02
1.052000045776367188e+01,2.559049987792968750e+02
1.056000041961669922e+01,2.564227600097656250e+02
1.060000038146972656e+01,2.563439636230468750e+02
1.064000034332275391e+01,2.556720886230468750e+02
1.068000030517578125e+01,2.549985961914062500e+02
1.072000026702880859e+01,2.543311309814453125e+02
1.076000022888183594e+01,2.536623840332031250e+02
1.080000019073486328e+01,2.528790893554687500e+02
1.084000015258789062e+01,2.519644470214843750e+02
1.088000011444091797e+01,2.510410156250000000e+02
1.092000007629394531e+01,2.501285705566406250e+02
1.096000003814697266e+01,2.492161254882812500e+02
1.100000000000000000e+01,2.481968383789062500e+02
1.103999996185302734e+01,2.470710601806640625e+02
1.107999992370605469e+01,2.459464263916015625e+02
1.111999988555908203e+01,2.457674102783203125e+02
1.115999984741210938e+01,2.455860443115234375e+02
1.119999980926513672e+01,2.448956756591796875e+02
1.123999977111816406e+01,2.436948242187500000e+02
1.127999973297119141e+01,2.424895782470703125e+02
1.131999969482421875e+01,2.412890319824218750e+02
1.136000061035156250e+01,2.400842590332031250e+02
1.140000057220458984e+01,2.376762237548828125e+02
1.144000053405761719e+01,2.340605621337890625e+02
1.148000049591064453e+01,2.304341583251953125e+02
1.152000045776367188e+01,2.265813903808593750e+02
1.156000041961669922e+01,2.165869750976562500e+02
1.160000038146972656e+01,2.137052307128906250e+02
1.164000034332275391e+01,2.128572998046875000e+02
1.168000030517578125e+01,2.120035400390625000e+02
1.172000026702880859e+01,2.111405944824218750e+02
1.176000022888183594e+01,2.102690277099609375e+02
1.180000019073486328e+01,2.093356628417968750e+02
1.184000015258789062e+01,2.083444061279296875e+02
1.188000011444091797e+01,2.073526306152343750e+02
1.192000007629394531e+01,2.063524627685546875e+02
1.196000003814697266e+01,2.053451080322265625e+02
1.200000000000000000e+01,2.041869659423828125e+02
1.203999996185302734e+01,2.028787994384765625e+02
1.207999992370605469e+01,2.019493408203125000e+02
1.211999988555908203e+01,2.021247558593750000e+02
1.215999984741210938e+01,2.022990722656250000e+02
1.219999980926513672e+01,2.024054412841796875e+02
1.223999977111816406e+01,2.024435882568359375e+02
1.227999973297119141e+01,2.024807128906250000e+02
1.231999969482421875e+01,2.025165405273437500e+02
1.236000061035156250e+01,2.025514526367187500e+02
1.240000057220458984e+01,2.024739837646484375e+02
1.244000053405761719e+01,2.022846832275390625e+02
1.248000049591064453e+01,2.020943145751953125e+02
1.252000045776367188e+01,2.019028930664062500e+02
1.256000041961669922e+01,2.017107849121093750e+02
1.260000038146972656e+01,2.014500122070312500e+02
1.264000034332275391e+01,2.011207885742187500e+02
1.268000030517578125e+01,2.007910308837890625e+02
1.272000026702880859e+01,2.004604492187500000e+02
1.276000022888183594e+01,2.001290893554687500e+02
1.280000019073486328e+01,1.997509002685546875e+02
1.284000015258789062e+01,1.993259277343750000e+02
1.288000011444091797e+01,1.989010772705078125e+02
1.292000007629394531e+01,1.984758605957031250e+02
1.296000003814697266e+01,1.980501708984375000e+02
1.300000000000000000e+01,1.974126586914062500e+02
1.303999996185302734e+01,1.965640411376953125e+02
1.307999992370605469e+01,1.957163238525390625e+02
1.311999988555908203e+01,1.948619079589843750e+02
1.315999984741210938e+01,1.940057983398437500e+02
1.319999980926513672e+01,1.930276031494140625e+02
1.323999977111816406e+01,1.919286499023437500e+02
1.327999973297119141e+01,1.906843566894531250e+02
1.331999969482421875e+01,1.877157135009765625e+02
1.335999965667724609e+01,1.865529785156250000e+02
1.340000057220458984e+01,1.857315063476562500e+02
1.344000053405761719e+01,1.851818542480468750e+02
1.348000049591064453e+01,1.846318664550781250e+02
1.352000045776367188e+01,1.840850982666015625e+02
1.356000041961669922e+01,1.835381927490234375e+02
1.360000038146972656e+01,1.829283599853515625e+02
1.364000034332275391e+01,1.822561798095703125e+02
1.368000030517578125e+01,1.815834808349609375e+02
1.372000026702880859e+01,1.809064025878906250e+02
1.376000022888183594e+01,1.802293090820312500e+02
1.380000019073486328e+01,1.794973144531250000e+02
1.384000015258789062e+01,1.780931091308593750e+02
1.388000011444091797e+01,1.773368225097656250e+02
1.392000007629394531e+01,1.769012145996093750e+02
1.396000003814697266e+01,1.764665222167968750e+02
1.400000000000000000e+01,1.760724487304687500e+02
1.403999996185302734e+01,1.757189941406250000e+02
1.407999992370605469e+01,1.753651428222656250e+02
1.411999988555908203e+01,1.750168762207031250e+02
1.415999984741210938e+01,1.746682434082031250e+02
1.419999980926513672e+01,1.743160400390625000e+02
1.423999977111816406e+01,1.739602966308593750e+02
1.427999973297119141e+01,1.736042022705078125e+02
1.431999969482421875e+01,1.732415161132812500e+02
1.435999965667724609e+01,1.728786315917968750e+02
1.439999961853027344e+01,1.724962768554687500e+02
1.444000053405761719e+01,1.720892181396484375e+02
1.448000049591064453e+01,1.716823120117187500e+02
1.452000045776367188e+01,1.712785034179687500e+02
1.456000041961669922e+01,1.708745117187500000e+02
1.460000038146972656e+01,1.704660797119140625e+02
1.464000034332275391e+01,1.700530242919921875e+02
1.468000030517578125e+01,1.696399536132812500e+02
1.472000026702880859e+01,1.692303009033203125e+02
1.476000022888183594e+01,1.688205413818359375e+02
1.480000019073486328e+01,1.684081115722656250e+02
1.484000015258789062e+01,1.679928894042968750e+02
1.488000011444091797e+01,1.675772399902343750e+02
1.492000007629394531e+01,1.671573791503906250e+02
1.496000003814697266e+01,1.667374572753906250e+02
1.500000000000000000e+01,1.663167572021484375e+02
1.503999996185302734e+01,1.658952026367187500e+02
1.507999992370605469e+01,1.654735412597656250e+02
1.511999988555908203e+01,1.650528564453125000e+02
1.515999984741210938e+01,1.646321563720703125e+02
1.519999980926513672e+01,1.642067718505859375e+02
1.523999977111816406e+01,1.637766876220703125e+02
1.527999973297119141e+01,1.633464965820312500e+02
1.531999969482421875e+01,1.629156799316406250e+02
1.535999965667724609e+01,1.624847564697265625e+02
1.539999961853027344e+01,1.620543060302734375e+02
1.544000053405761719e+01,1.616243286132812500e+02
1.548000049591064453e+01,1.611942749023437500e+02
1.552000045776367188e+01,1.607645568847656250e+02
1.556000041961669922e+01,1.603346557617187500e+02
1.560000038146972656e+01,1.599140625000000000e+02
1.564000034332275391e+01,1.595027008056640625e+02
1.568000030517578125e+01,1.590911712646484375e+02
1.572000026702880859e+01,1.587253417968750000e+02
1.576000022888183594e+01,1.583597717285156250e+02
1.580000019073486328e+01,1.579855041503906250e+02
1.584000015258789062e+01,1.576024475097656250e+02
1.588000011444091797e+01,1.572158813476562500e+02
1.592000007629394531e+01,1.568281707763671875e+02
1.596000003814697266e+01,1.564400787353515625e+02
1.600000000000000000e+01,1.560526428222656250e+02
1.603999900817871094e+01,1.556658477783203125e+02
1.607999992370605469e+01,1.552787170410156250e+02
1.611999893188476562e+01,1.548918304443359375e+02
1.615999984741210938e+01,1.545045471191406250e+02
1.619999885559082031e+01,1.541168975830078125e+02
1.623999977111816406e+01,1.537288208007812500e+02
1.627999877929687500e+01,1.533404388427734375e+02
1.631999969482421875e+01,1.529522857666015625e+02
1.635999870300292969e+01,1.525637969970703125e+02
1.639999961853027344e+01,1.521749877929687500e+02
1.643999862670898438e+01,1.517858734130859375e+02
1.647999954223632812e+01,1.513962860107421875e+02
1.652000045776367188e+01,1.510108947753906250e+02
1.655999946594238281e+01,1.506252441406250000e+02
1.660000038146972656e+01,1.502393035888671875e+02
1.663999938964843750e+01,1.498530426025390625e+02
1.668000030517578125e+01,1.494664611816406250e+02
1.671999931335449219e+01,1.490800323486328125e+02
1.676000022888183594e+01,1.486932067871093750e+02
1.679999923706054688e+01,1.483061370849609375e+02
1.684000015258789062e+01,1.479187011718750000e+02
1.687999916076660156e+01,1.475310058593750000e+02
1.692000007629394531e+01,1.471437225341796875e+02
1.695999908447265625e+01,1.467562103271484375e+02
1.700000000000000000e+01,1.463775787353515625e+02
1.703999900817871094e+01,1.460076904296875000e+02
1.707999992370605469e+01,1.456376495361328125e+02
1.711999893188476562e+01,1.452710418701171875e+02
1.715999984741210938e+01,1.449042053222656250e+02
1.719999885559082031e+01,1.445373077392578125e+02
1.723999977111816406e+01,1.441702423095703125e+02
1.727999877929687500e+01,1.437676391601562500e+02
1.731999969482421875e+01,1.433454132080078125e+02
1.735999870300292969e+01,1.429234161376953125e+02
1.739999961853027344e+01,1.425015258789062500e+02
1.743999862670898438e+01,1.420792083740234375e+02
1.747999954223632812e+01,1.416554412841796875e+02
