# Start of Energy Bin (keV), Effective Area (cm^2)
1.600000023841857910e+00,6.509432792663574219e-01
1.639999985694885254e+00,8.878446817398071289e-01
1.680000066757202148e+00,1.207975864410400391e+00
1.720000028610229492e+00,1.639689087867736816e+00
1.759999990463256836e+00,2.188276529312133789e+00
1.799999952316284180e+00,2.719461679458618164e+00
1.840000033378601074e+00,1.487578392028808594e+00
1.879999995231628418e+00,1.876431703567504883e+00
1.920000076293945312e+00,2.426696300506591797e+00
1.960000038146972656e+00,3.035099983215332031e+00
2.000000000000000000e+00,3.729489088058471680e+00
2.039999961853027344e+00,4.545126438140869141e+00
2.079999923706054688e+00,5.534142494201660156e+00
2.119999885559082031e+00,4.945890903472900391e+00
2.160000085830688477e+00,5.712858676910400391e+00
2.200000047683715820e+00,5.900699138641357422e+00
2.240000009536743164e+00,6.719839096069335938e+00
2.279999971389770508e+00,7.676467418670654297e+00
2.319999933242797852e+00,8.854222297668457031e+00
2.360000133514404297e+00,9.988122940063476562e+00
2.400000095367431641e+00,1.106658840179443359e+01
2.440000057220458984e+00,1.228822803497314453e+01
2.480000019073486328e+00,1.371911048889160156e+01
2.519999980926513672e+00,1.544936466217041016e+01
2.559999942779541016e+00,1.734650421142578125e+01
2.599999904632568359e+00,1.905369186401367188e+01
2.639999866485595703e+00,1.931159400939941406e+01
2.679999828338623047e+00,2.100658607482910156e+01
2.720000028610229492e+00,2.283237838745117188e+01
2.759999990463256836e+00,2.480611801147460938e+01
2.799999952316284180e+00,2.692937278747558594e+01
2.840000152587890625e+00,2.912031936645507812e+01
2.880000114440917969e+00,3.099794960021972656e+01
2.920000076293945312e+00,3.295988845825195312e+01
2.960000038146972656e+00,3.503797912597656250e+01
3.000000000000000000e+00,3.724834823608398438e+01
3.039999961853027344e+00,3.841554260253906250e+01
3.079999923706054688e+00,4.060910797119140625e+01
3.119999885559082031e+00,4.287509155273437500e+01
3.159999847412109375e+00,4.472752380371093750e+01
3.199999809265136719e+00,4.663597106933593750e+01
3.240000009536743164e+00,4.860294723510742188e+01
3.279999971389770508e+00,4.992570495605468750e+01
3.319999933242797852e+00,5.295569610595703125e+01
3.360000133514404297e+00,5.614657592773437500e+01
3.400000095367431641e+00,5.948957824707031250e+01
3.440000057220458984e+00,6.184506607055664062e+01
3.480000019073486328e+00,6.345059204101562500e+01
3.519999980926513672e+00,6.345807266235351562e+01
3.559999942779541016e+00,6.507968902587890625e+01
3.599999904632568359e+00,6.673284149169921875e+01
3.639999866485595703e+00,6.840077209472656250e+01
3.679999828338623047e+00,7.008867645263671875e+01
3.719999790191650391e+00,7.093967437744140625e+01
3.759999752044677734e+00,7.267411804199218750e+01
3.800000190734863281e+00,7.416955566406250000e+01
3.840000152587890625e+00,7.548609161376953125e+01
3.880000114440917969e+00,7.680358123779296875e+01
3.920000076293945312e+00,7.858899688720703125e+01
3.960000038146972656e+00,8.055394744873046875e+01
4.000000000000000000e+00,8.205332946777343750e+01
4.039999961853027344e+00,8.398104858398437500e+01
4.079999923706054688e+00,8.593502044677734375e+01
4.119999885559082031e+00,8.792046356201171875e+01
4.159999847412109375e+00,8.990812683105468750e+01
4.199999809265136719e+00,9.160250854492187500e+01
4.239999771118164062e+00,9.330806732177734375e+01
4.279999732971191406e+00,9.502879333496093750e+01
4.320000171661376953e+00,9.516345214843750000e+01
4.360000133514404297e+00,9.613677215576171875e+01
4.400000095367431641e+00,9.753163909912109375e+01
4.440000057220458984e+00,9.893174743652343750e+01
4.480000019073486328e+00,1.003415069580078125e+02
4.519999980926513672e+00,1.017630462646484375e+02
4.559999942779541016e+00,1.031871261596679688e+02
4.599999904632568359e+00,1.032966384887695312e+02
4.639999866485595703e+00,1.044784622192382812e+02
4.679999828338623047e+00,1.056042175292968750e+02
4.719999790191650391e+00,1.067341461181640625e+02
4.759999752044677734e+00,1.078648681640625000e+02
4.799999713897705078e+00,1.089931335449218750e+02
4.840000152587890625e+00,1.101165542602539062e+02
4.880000114440917969e+00,1.112384185791015625e+02
4.920000076293945312e+00,1.118003692626953125e+02
4.960000038146972656e+00,1.129139633178710938e+02
5.000000000000000000e+00,1.139983215332031250e+02
5.039999961853027344e+00,1.151496734619140625e+02
5.079999923706054688e+00,1.162154769897460938e+02
5.119999885559082031e+00,1.172841949462890625e+02
5.159999847412109375e+00,1.183510894775390625e+02
5.199999809265136719e+00,1.194139480590820312e+02
5.239999771118164062e+00,1.204737548828125000e+02
5.279999732971191406e+00,1.215334396362304688e+02
5.320000171661376953e+00,1.225985183715820312e+02
5.360000133514404297e+00,1.236638488769531250e+02
5.400000095367431641e+00,1.247269287109375000e+02
5.440000057220458984e+00,1.257869262695312500e+02
5.480000019073486328e+00,1.268469543457031250e+02
5.519999980926513672e+00,1.278994369506835938e+02
5.559999942779541016e+00,1.288632965087890625e+02
5.599999904632568359e+00,1.297338714599609375e+02
5.639999866485595703e+00,1.306014709472656250e+02
5.679999828338623047e+00,1.314673004150390625e+02
5.719999790191650391e+00,1.323332519531250000e+02
5.759999752044677734e+00,1.331972351074218750e+02
5.799999713897705078e+00,1.340476379394531250e+02
5.839999675750732422e+00,1.348851623535156250e+02
5.879999637603759766e+00,1.357210388183593750e+02
5.919999599456787109e+00,1.365615844726562500e+02
5.960000038146972656e+00,1.374004669189453125e+02
6.000000000000000000e+00,1.381658020019531250e+02
6.039999961853027344e+00,1.388560333251953125e+02
6.079999923706054688e+00,1.395434417724609375e+02
6.119999885559082031e+00,1.401474914550781250e+02
6.159999847412109375e+00,1.407032775878906250e+02
6.199999809265136719e+00,1.412607421875000000e+02
6.239999771118164062e+00,1.418196716308593750e+02
6.279999732971191406e+00,1.423755493164062500e+02
6.319999694824218750e+00,1.429416046142578125e+02
6.359999656677246094e+00,1.435045623779296875e+02
6.399999618530273438e+00,1.440605163574218750e+02
6.439999580383300781e+00,1.446095886230468750e+02
6.480000019073486328e+00,1.451556091308593750e+02
6.519999980926513672e+00,1.457077178955078125e+02
6.559999942779541016e+00,1.462570800781250000e+02
6.599999904632568359e+00,1.467997436523437500e+02
6.639999866485595703e+00,1.473356323242187500e+02
6.679999828338623047e+00,1.478691406250000000e+02
6.719999790191650391e+00,1.483621673583984375e+02
6.759999752044677734e+00,1.487891845703125000e+02
6.799999713897705078e+00,1.492052307128906250e+02
6.839999675750732422e+00,1.496104736328125000e+02
6.879999637603759766e+00,1.500131530761718750e+02
6.919999599456787109e+00,1.504073333740234375e+02
6.959999561309814453e+00,1.507988586425781250e+02
7.000000000000000000e+00,1.511548309326171875e+02
7.039999961853027344e+00,1.514748840332031250e+02
7.079999923706054688e+00,1.517930908203125000e+02
7.119999885559082031e+00,1.512912750244140625e+02
7.159999847412109375e+00,1.515852355957031250e+02
7.199999809265136719e+00,1.518757324218750000e+02
7.239999771118164062e+00,1.521628112792968750e+02
7.279999732971191406e+00,1.524474334716796875e+02
7.319999694824218750e+00,1.527557220458984375e+02
7.359999656677246094e+00,1.530615386962890625e+02
7.399999618530273438e+00,1.533529968261718750e+02
7.439999580383300781e+00,1.536298370361328125e+02
7.479999542236328125e+00,1.539047241210937500e+02
7.519999980926513672e+00,1.541652221679687500e+02
7.559999942779541016e+00,1.544235076904296875e+02
7.599999904632568359e+00,1.546624603271484375e+02
7.639999866485595703e+00,1.548819580078125000e+02
7.679999828338623047e+00,1.550991363525390625e+02
7.719999790191650391e+00,1.553131713867187500e+02
7.759999752044677734e+00,1.555253448486328125e+02
7.799999713897705078e+00,1.557123565673828125e+02
7.839999675750732422e+00,1.558740234375000000e+02
7.879999637603759766e+00,1.560337371826171875e+02
7.919999599456787109e+00,1.562119140625000000e+02
7.959999561309814453e+00,1.563879699707031250e+02
7.999999523162841797e+00,1.565200500488281250e+02
8.039999961853027344e+00,1.566077880859375000e+02
8.079999923706054688e+00,1.566934509277343750e+02
8.119999885559082031e+00,1.567582244873046875e+02
8.159999847412109375e+00,1.567784118652343750e+02
8.199999809265136719e+00,1.567700958251953125e+02
8.239999771118164062e+00,1.567647247314453125e+02
8.279999732971191406e+00,1.568521881103515625e+02
8.319999694824218750e+00,1.569576416015625000e+02
8.359999656677246094e+00,1.570611419677734375e+02
8.399999618530273438e+00,1.571395721435546875e+02
8.439999580383300781e+00,1.571929168701171875e+02
8.479999542236328125e+00,1.572440032958984375e+02
8.520000457763671875e+00,1.572804565429687500e+02
8.560000419616699219e+00,1.573148345947265625e+02
8.600000381469726562e+00,1.573256072998046875e+02
8.640000343322753906e+00,1.573126525878906250e+02
8.680000305175781250e+00,1.572975311279296875e+02
8.720000267028808594e+00,1.572926177978515625e+02
8.760000228881835938e+00,1.572858428955078125e+02
8.800000190734863281e+00,1.572588043212890625e+02
8.840000152587890625e+00,1.572113952636718750e+02
8.880000114440917969e+00,1.571621093750000000e+02
8.920000076293945312e+00,1.571172637939453125e+02
8.960000038146972656e+00,1.570475463867187500e+02
9.000000000000000000e+00,1.569451446533203125e+02
9.039999961853027344e+00,1.568225402832031250e+02
9.079999923706054688e+00,1.566979064941406250e+02
9.119999885559082031e+00,1.565806274414062500e+02
9.159999847412109375e+00,1.565679473876953125e+02
9.199999809265136719e+00,1.565322723388671875e+02
9.239999771118164062e+00,1.564736785888671875e+02
9.279999732971191406e+00,1.564125213623046875e+02
9.319999694824218750e+00,1.563648986816406250e+02
9.359999656677246094e+00,1.563146820068359375e+02
9.399999618530273438e+00,1.562336883544921875e+02
9.439999580383300781e+00,1.561219482421875000e+02
9.479999542236328125e+00,1.560076904296875000e+02
9.519999504089355469e+00,1.558825531005859375e+02
9.560000419616699219e+00,1.557550964355468750e+02
9.600000381469726562e+00,1.555507202148437500e+02
9.640000343322753906e+00,1.552836303710937500e+02
9.680000305175781250e+00,1.550566864013671875e+02
9.720000267028808594e+00,1.548384704589843750e+02
9.760000228881835938e+00,1.546175537109375000e+02
9.800000190734863281e+00,1.541449279785156250e+02
9.840000152587890625e+00,1.534156341552734375e+02
9.880000114440917969e+00,1.526689453125000000e+02
9.920000076293945312e+00,1.519102935791015625e+02
9.960000038146972656e+00,1.512620544433593750e+02
1.000000000000000000e+01,1.489900512695312500e+02
1.003999996185302734e+01,1.450272521972656250e+02
1.007999992370605469e+01,1.410785369873046875e+02
1.011999988555908203e+01,1.371436157226562500e+02
1.015999984741210938e+01,1.332240905761718750e+02
1.019999980926513672e+01,1.289640655517578125e+02
1.023999977111816406e+01,1.290388641357421875e+02
1.027999973297119141e+01,1.291096801757812500e+02
1.032000064849853516e+01,1.291773376464843750e+02
1.036000061035156250e+01,1.292412872314453125e+02
1.040000057220458984e+01,1.298002777099609375e+02
1.044000053405761719e+01,1.306680603027343750e+02
1.048000049591064453e+01,1.309571533203125000e+02
1.052000045776367188e+01,1.312424011230468750e+02
1.056000041961669922e+01,1.315245208740234375e+02
1.060000038146972656e+01,1.314433898925781250e+02
1.064000034332275391e+01,1.310009307861328125e+02
1.068000030517578125e+01,1.305579833984375000e+02
1.072000026702880859e+01,1.301155090332031250e+02
1.076000022888183594e+01,1.296725616455078125e+02
1.080000019073486328e+01,1.291575469970703125e+02
1.084000015258789062e+01,1.285618896484375000e+02
1.088000011444091797e+01,1.279626083374023438e+02
1.092000007629394531e+01,1.273656768798828125e+02
1.096000003814697266e+01,1.267693023681640625e+02
1.100000000000000000e+01,1.261058654785156250e+02
1.103999996185302734e+01,1.253759231567382812e+02
1.107999992370605469e+01,1.246476974487304688e+02
1.111999988555908203e+01,1.244299545288085938e+02
1.115999984741210938e+01,1.242114562988281250e+02
1.119999980926513672e+01,1.236865386962890625e+02
1.123999977111816406e+01,1.228557357788085938e+02
1.127999973297119141e+01,1.220252380371093750e+02
1.131999969482421875e+01,1.211987609863281250e+02
1.136000061035156250e+01,1.203727416992187500e+02
1.140000057220458984e+01,1.189787826538085938e+02
1.144000053405761719e+01,1.170166015625000000e+02
1.148000049591064453e+01,1.150540313720703125e+02
1.152000045776367188e+01,1.130005493164062500e+02
1.156000041961669922e+01,1.078927459716796875e+02
1.160000038146972656e+01,1.064373931884765625e+02
1.164000034332275391e+01,1.059841308593750000e+02
1.168000030517578125e+01,1.055282745361328125e+02
1.172000026702880859e+01,1.050738296508789062e+02
1.176000022888183594e+01,1.046154632568359375e+02
1.180000019073486328e+01,1.040946044921875000e+02
1.184000015258789062e+01,1.035137786865234375e+02
1.188000011444091797e+01,1.029334564208984375e+02
1.192000007629394531e+01,1.023407287597656250e+02
1.196000003814697266e+01,1.017455062866210938e+02
1.200000000000000000e+01,1.010759277343750000e+02
1.203999996185302734e+01,1.003327560424804688e+02
1.207999992370605469e+01,9.980773925781250000e+01
1.211999988555908203e+01,9.993180084228515625e+01
1.215999984741210938e+01,1.000554199218750000e+02
1.219999980926513672e+01,1.001321105957031250e+02
1.223999977111816406e+01,1.001615829467773438e+02
1.227999973297119141e+01,1.001905822753906250e+02
1.231999969482421875e+01,1.002015991210937500e+02
1.236000061035156250e+01,1.002120895385742188e+02
1.240000057220458984e+01,1.001573257446289062e+02
1.244000053405761719e+01,1.000375823974609375e+02
1.248000049591064453e+01,9.991734313964843750e+01
1.252000045776367188e+01,9.980858612060546875e+01
1.256000041961669922e+01,9.969953918457031250e+01
1.260000038146972656e+01,9.955529785156250000e+01
1.264000034332275391e+01,9.937581634521484375e+01
1.268000030517578125e+01,9.919626617431640625e+01
1.272000026702880859e+01,9.899885559082031250e+01
1.276000022888183594e+01,9.880129241943359375e+01
1.280000019073486328e+01,9.858194732666015625e+01
1.284000015258789062e+01,9.834075927734375000e+01
1.288000011444091797e+01,9.809986877441406250e+01
1.292000007629394531e+01,9.786615753173828125e+01
1.296000003814697266e+01,9.763232421875000000e+01
1.300000000000000000e+01,9.730325317382812500e+01
1.303999996185302734e+01,9.687931823730468750e+01
1.307999992370605469e+01,9.645590972900390625e+01
1.311999988555908203e+01,9.604171752929687500e+01
1.315999984741210938e+01,9.562670898437500000e+01
1.319999980926513672e+01,9.515864562988281250e+01
1.323999977111816406e+01,9.463818359375000000e+01
1.327999973297119141e+01,9.408626556396484375e+01
1.331999969482421875e+01,9.263358306884765625e+01
1.335999965667724609e+01,9.212992095947265625e+01
1.340000057220458984e+01,9.178141784667968750e+01
1.344000053405761719e+01,9.154692077636718750e+01
1.348000049591064453e+01,9.131200408935546875e+01
1.352000045776367188e+01,9.107706451416015625e+01
1.356000041961669922e+01,9.084192657470703125e+01
1.360000038146972656e+01,9.057664489746093750e+01
1.364000034332275391e+01,9.028133392333984375e+01
1.368000030517578125e+01,8.998555755615234375e+01
1.372000026702880859e+01,8.968920135498046875e+01
1.376000022888183594e+01,8.939256286621093750e+01
1.380000019073486328e+01,8.907257080078125000e+01
1.384000015258789062e+01,8.840847778320312500e+01
1.388000011444091797e+01,8.806290435791015625e+01
1.392000007629394531e+01,8.787858581542968750e+01
1.396000003814697266e+01,8.769474792480468750e+01
1.400000000000000000e+01,8.752735900878906250e+01
1.403999996185302734e+01,8.737664794921875000e+01
1.407999992370605469e+01,8.722566986083984375e+01
1.411999988555908203e+01,8.706891632080078125e+01
1.415999984741210938e+01,8.691186523437500000e+01
1.419999980926513672e+01,8.675224304199218750e+01
1.423999977111816406e+01,8.658988952636718750e+01
1.427999973297119141e+01,8.642723846435546875e+01
1.431999969482421875e+01,8.627787780761718750e+01
1.435999965667724609e+01,8.612826538085937500e+01
1.439999961853027344e+01,8.596890258789062500e+01
1.444000053405761719e+01,8.579708099365234375e+01
1.448000049591064453e+01,8.562517547607421875e+01
1.452000045776367188e+01,8.544583892822265625e+01
1.456000041961669922e+01,8.526631164550781250e+01
1.460000038146972656e+01,8.508483123779296875e+01
1.464000034332275391e+01,8.490148925781250000e+01
1.468000030517578125e+01,8.471803283691406250e+01
1.472000026702880859e+01,8.454243469238281250e+01
1.476000022888183594e+01,8.436667633056640625e+01
1.480000019073486328e+01,8.418929290771484375e+01
1.484000015258789062e+01,8.401022338867187500e+01
1.488000011444091797e+01,8.383084106445312500e+01
1.492000007629394531e+01,8.363648986816406250e+01
1.496000003814697266e+01,8.344203186035156250e+01
1.500000000000000000e+01,8.324793243408203125e+01
1.503999996185302734e+01,8.305412292480468750e+01
1.507999992370605469e+01,8.286018371582031250e+01
1.511999988555908203e+01,8.268357849121093750e+01
1.515999984741210938e+01,8.250687408447265625e+01
1.519999980926513672e+01,8.232731628417968750e+01
1.523999977111816406e+01,8.214489746093750000e+01
1.527999973297119141e+01,8.196227264404296875e+01
1.531999969482421875e+01,8.176696014404296875e+01
1.535999965667724609e+01,8.157139587402343750e+01
1.539999961853027344e+01,8.137632751464843750e+01
1.544000053405761719e+01,8.118163299560546875e+01
1.548000049591064453e+01,8.098677825927734375e+01
1.552000045776367188e+01,8.080075073242187500e+01
1.556000041961669922e+01,8.061451721191406250e+01
1.560000038146972656e+01,8.043296813964843750e+01
1.564000034332275391e+01,8.025601196289062500e+01
1.568000030517578125e+01,8.007875061035156250e+01
1.572000026702880859e+01,7.990951538085937500e+01
1.576000022888183594e+01,7.973998260498046875e+01
1.580000019073486328e+01,7.956553649902343750e+01
1.584000015258789062e+01,7.938608551025390625e+01
1.588000011444091797e+01,7.920475769042968750e+01
1.592000007629394531e+01,7.901309967041015625e+01
1.596000003814697266e+01,7.882138061523437500e+01
1.600000000000000000e+01,7.862739562988281250e+01
1.603999900817871094e+01,7.843132781982421875e+01
1.607999992370605469e+01,7.823503875732421875e+01
1.611999893188476562e+01,7.803454589843750000e+01
1.615999984741210938e+01,7.783383178710937500e+01
1.619999885559082031e+01,7.763302612304687500e+01
1.623999977111816406e+01,7.743201446533203125e+01
1.627999877929687500e+01,7.723091888427734375e+01
1.631999969482421875e+01,7.703772735595703125e+01
1.635999870300292969e+01,7.684439849853515625e+01
1.639999961853027344e+01,7.665084075927734375e+01
1.643999862670898438e+01,7.645713806152343750e+01
1.647999954223632812e+01,7.626327514648437500e+01
1.652000045776367188e+01,7.606783294677734375e+01
1.655999946594238281e+01,7.587228393554687500e+01
1.660000038146972656e+01,7.567651367187500000e+01
1.663999938964843750e+01,7.548064422607421875e+01
1.668000030517578125e+01,7.528463745117187500e+01
1.671999931335449219e+01,7.508228302001953125e+01
1.676000022888183594e+01,7.487973785400390625e+01
1.679999923706054688e+01,7.467707061767578125e+01
1.684000015258789062e+01,7.447437286376953125e+01
1.687999916076660156e+01,7.427144622802734375e+01
1.692000007629394531e+01,7.407402038574218750e+01
1.695999908447265625e+01,7.387641906738281250e+01
1.700000000000000000e+01,7.367715454101562500e+01
1.703999900817871094e+01,7.347625732421875000e+01
1.707999992370605469e+01,7.327524566650390625e+01
1.711999893188476562e+01,7.307155609130859375e+01
1.715999984741210938e+01,7.286776733398437500e+01
1.719999885559082031e+01,7.266402435302734375e+01
1.723999977111816406e+01,7.246028900146484375e+01
1.727999877929687500e+01,7.222314453125000000e+01
1.731999969482421875e+01,7.197580718994140625e+01
1.735999870300292969e+01,7.172875976562500000e+01
1.739999961853027344e+01,7.148197174072265625e+01
1.743999862670898438e+01,7.123510742187500000e+01
1.747999954223632812e+01,7.098770141601562500e+01
