# Start of Energy Bin (keV), Effective Area (cm^2)
1.600000023841857910e+00,5.798911452293395996e-01
1.639999985694885254e+00,8.055503368377685547e-01
1.680000066757202148e+00,1.114834904670715332e+00
1.720000028610229492e+00,1.537459373474121094e+00
1.759999990463256836e+00,2.082536935806274414e+00
1.799999952316284180e+00,2.625717163085937500e+00
1.840000033378601074e+00,1.456390857696533203e+00
1.879999995231628418e+00,1.858394384384155273e+00
1.920000076293945312e+00,2.425863504409790039e+00
1.960000038146972656e+00,3.060439586639404297e+00
2.000000000000000000e+00,3.790253639221191406e+00
2.039999961853027344e+00,4.651845455169677734e+00
2.079999923706054688e+00,5.700972080230712891e+00
2.119999885559082031e+00,5.195013999938964844e+00
2.160000085830688477e+00,6.037795543670654297e+00
2.200000047683715820e+00,6.302855014801025391e+00
2.240000009536743164e+00,7.221912860870361328e+00
2.279999971389770508e+00,8.297660827636718750e+00
2.319999933242797852e+00,9.621544837951660156e+00
2.360000133514404297e+00,1.090860557556152344e+01
2.400000095367431641e+00,1.214419460296630859e+01
2.440000057220458984e+00,1.354378795623779297e+01
2.480000019073486328e+00,1.517965412139892578e+01
2.519999980926513672e+00,1.715022277832031250e+01
2.559999942779541016e+00,1.931646156311035156e+01
2.599999904632568359e+00,2.128138351440429688e+01
2.639999866485595703e+00,2.169759941101074219e+01
2.679999828338623047e+00,2.366684532165527344e+01
2.720000028610229492e+00,2.578868675231933594e+01
2.759999990463256836e+00,2.808445549011230469e+01
2.799999952316284180e+00,3.055760383605957031e+01
2.840000152587890625e+00,3.311443328857421875e+01
2.880000114440917969e+00,3.532046508789062500e+01
2.920000076293945312e+00,3.763061141967773438e+01
2.960000038146972656e+00,4.007822418212890625e+01
3.000000000000000000e+00,4.272130966186523438e+01
3.039999961853027344e+00,4.427238464355468750e+01
3.079999923706054688e+00,4.697027587890625000e+01
3.119999885559082031e+00,4.976936721801757812e+01
3.159999847412109375e+00,5.210240936279296875e+01
3.199999809265136719e+00,5.451295852661132812e+01
3.240000009536743164e+00,5.700466918945312500e+01
3.279999971389770508e+00,5.878762054443359375e+01
3.319999933242797852e+00,6.211315917968750000e+01
3.360000133514404297e+00,6.560110473632812500e+01
3.400000095367431641e+00,6.924481201171875000e+01
3.440000057220458984e+00,7.201233673095703125e+01
3.480000019073486328e+00,7.400626373291015625e+01
3.519999980926513672e+00,7.132077026367187500e+01
3.559999942779541016e+00,7.329857635498046875e+01
3.599999904632568359e+00,7.535130310058593750e+01
3.639999866485595703e+00,7.743255615234375000e+01
3.679999828338623047e+00,7.954508972167968750e+01
3.719999790191650391e+00,7.922988128662109375e+01
3.759999752044677734e+00,8.140586090087890625e+01
3.800000190734863281e+00,8.330770111083984375e+01
3.840000152587890625e+00,8.501959228515625000e+01
3.880000114440917969e+00,8.673593139648437500e+01
3.920000076293945312e+00,8.891639709472656250e+01
3.960000038146972656e+00,9.127713775634765625e+01
4.000000000000000000e+00,9.233090209960937500e+01
4.039999961853027344e+00,9.464581298828125000e+01
4.079999923706054688e+00,9.698993682861328125e+01
4.119999885559082031e+00,9.936689758300781250e+01
4.159999847412109375e+00,1.017470932006835938e+02
4.199999809265136719e+00,1.037957534790039062e+02
4.239999771118164062e+00,1.058574371337890625e+02
4.279999732971191406e+00,1.079375228881835938e+02
4.320000171661376953e+00,1.054901885986328125e+02
4.360000133514404297e+00,1.059266510009765625e+02
4.400000095367431641e+00,1.077007904052734375e+02
4.440000057220458984e+00,1.094863739013671875e+02
4.480000019073486328e+00,1.112933120727539062e+02
4.519999980926513672e+00,1.131151657104492188e+02
4.559999942779541016e+00,1.149354934692382812e+02
4.599999904632568359e+00,1.133806076049804688e+02
4.639999866485595703e+00,1.150352783203125000e+02
4.679999828338623047e+00,1.165319290161132812e+02
4.719999790191650391e+00,1.180271453857421875e+02
4.759999752044677734e+00,1.195234680175781250e+02
4.799999713897705078e+00,1.210209197998046875e+02
4.840000152587890625e+00,1.225116577148437500e+02
4.880000114440917969e+00,1.240000228881835938e+02
4.920000076293945312e+00,1.239317016601562500e+02
4.960000038146972656e+00,1.254204330444335938e+02
5.000000000000000000e+00,1.268759155273437500e+02
5.039999961853027344e+00,1.284039154052734375e+02
5.079999923706054688e+00,1.298338623046875000e+02
5.119999885559082031e+00,1.312592926025390625e+02
5.159999847412109375e+00,1.326812744140625000e+02
5.199999809265136719e+00,1.340979309082031250e+02
5.239999771118164062e+00,1.355105285644531250e+02
5.279999732971191406e+00,1.369232025146484375e+02
5.320000171661376953e+00,1.383356933593750000e+02
5.360000133514404297e+00,1.397481689453125000e+02
5.400000095367431641e+00,1.411576995849609375e+02
5.440000057220458984e+00,1.425627746582031250e+02
5.480000019073486328e+00,1.439665985107421875e+02
5.519999980926513672e+00,1.453702239990234375e+02
5.559999942779541016e+00,1.466722412109375000e+02
5.599999904632568359e+00,1.478667449951171875e+02
5.639999866485595703e+00,1.490566253662109375e+02
5.679999828338623047e+00,1.502431945800781250e+02
5.719999790191650391e+00,1.514252929687500000e+02
5.759999752044677734e+00,1.526042175292968750e+02
5.799999713897705078e+00,1.537670898437500000e+02
5.839999675750732422e+00,1.549147796630859375e+02
5.879999637603759766e+00,1.560590209960937500e+02
5.919999599456787109e+00,1.572009124755859375e+02
5.960000038146972656e+00,1.583392944335937500e+02
6.000000000000000000e+00,1.593889923095703125e+02
6.039999961853027344e+00,1.603480072021484375e+02
6.079999923706054688e+00,1.613020935058593750e+02
6.119999885559082031e+00,1.621745605468750000e+02
6.159999847412109375e+00,1.629893493652343750e+02
6.199999809265136719e+00,1.638046417236328125e+02
6.239999771118164062e+00,1.646209106445312500e+02
6.279999732971191406e+00,1.654321136474609375e+02
6.319999694824218750e+00,1.662374114990234375e+02
6.359999656677246094e+00,1.670375518798828125e+02
6.399999618530273438e+00,1.678287048339843750e+02
6.439999580383300781e+00,1.686109466552734375e+02
6.480000019073486328e+00,1.693884277343750000e+02
6.519999980926513672e+00,1.701613464355468750e+02
6.559999942779541016e+00,1.709297332763671875e+02
6.599999904632568359e+00,1.716896972656250000e+02
6.639999866485595703e+00,1.724412841796875000e+02
6.679999828338623047e+00,1.731885528564453125e+02
6.719999790191650391e+00,1.738958435058593750e+02
6.759999752044677734e+00,1.745240936279296875e+02
6.799999713897705078e+00,1.751397857666015625e+02
6.839999675750732422e+00,1.757432556152343750e+02
6.879999637603759766e+00,1.763422546386718750e+02
6.919999599456787109e+00,1.769370117187500000e+02
6.959999561309814453e+00,1.775274810791015625e+02
7.000000000000000000e+00,1.781058349609375000e+02
7.039999961853027344e+00,1.786719665527343750e+02
7.079999923706054688e+00,1.792351074218750000e+02
7.119999885559082031e+00,1.788430328369140625e+02
7.159999847412109375e+00,1.793895111083984375e+02
7.199999809265136719e+00,1.799371643066406250e+02
7.239999771118164062e+00,1.804866333007812500e+02
7.279999732971191406e+00,1.810324401855468750e+02
7.319999694824218750e+00,1.815746307373046875e+02
7.359999656677246094e+00,1.821131744384765625e+02
7.399999618530273438e+00,1.826394805908203125e+02
7.439999580383300781e+00,1.831535644531250000e+02
7.479999542236328125e+00,1.836643676757812500e+02
7.519999980926513672e+00,1.841714324951171875e+02
7.559999942779541016e+00,1.846751861572265625e+02
7.599999904632568359e+00,1.851663055419921875e+02
7.639999866485595703e+00,1.856445617675781250e+02
7.679999828338623047e+00,1.861198120117187500e+02
7.719999790191650391e+00,1.865999603271484375e+02
7.759999752044677734e+00,1.870774688720703125e+02
7.799999713897705078e+00,1.875406188964843750e+02
7.839999675750732422e+00,1.879888610839843750e+02
7.879999637603759766e+00,1.884342193603515625e+02
7.919999599456787109e+00,1.888694763183593750e+02
7.959999561309814453e+00,1.893018188476562500e+02
7.999999523162841797e+00,1.896662292480468750e+02
8.039999961853027344e+00,1.899625091552734375e+02
8.079999923706054688e+00,1.902557525634765625e+02
8.119999885559082031e+00,1.905464782714843750e+02
8.159999847412109375e+00,1.907828216552734375e+02
8.199999809265136719e+00,1.909889678955078125e+02
8.239999771118164062e+00,1.911916503906250000e+02
8.279999732971191406e+00,1.914712066650390625e+02
8.319999694824218750e+00,1.917470703125000000e+02
8.359999656677246094e+00,1.920202331542968750e+02
8.399999618530273438e+00,1.922546386718750000e+02
8.439999580383300781e+00,1.924506072998046875e+02
8.479999542236328125e+00,1.926436309814453125e+02
8.520000457763671875e+00,1.928453674316406250e+02
8.560000419616699219e+00,1.930442047119140625e+02
8.600000381469726562e+00,1.932005767822265625e+02
8.640000343322753906e+00,1.933141021728515625e+02
8.680000305175781250e+00,1.934246826171875000e+02
8.720000267028808594e+00,1.935400085449218750e+02
8.760000228881835938e+00,1.936524658203125000e+02
8.800000190734863281e+00,1.937248687744140625e+02
8.840000152587890625e+00,1.937571105957031250e+02
8.880000114440917969e+00,1.937862091064453125e+02
8.920000076293945312e+00,1.938105316162109375e+02
8.960000038146972656e+00,1.938037109375000000e+02
9.000000000000000000e+00,1.937445068359375000e+02
9.039999961853027344e+00,1.936484985351562500e+02
9.079999923706054688e+00,1.935494537353515625e+02
9.119999885559082031e+00,1.934508056640625000e+02
9.159999847412109375e+00,1.934423217773437500e+02
9.199999809265136719e+00,1.933983917236328125e+02
9.239999771118164062e+00,1.933188934326171875e+02
9.279999732971191406e+00,1.932361450195312500e+02
9.319999694824218750e+00,1.931614074707031250e+02
9.359999656677246094e+00,1.930834197998046875e+02
9.399999618530273438e+00,1.929642944335937500e+02
9.439999580383300781e+00,1.928040161132812500e+02
9.479999542236328125e+00,1.926405487060546875e+02
9.519999504089355469e+00,1.924733886718750000e+02
9.560000419616699219e+00,1.923032073974609375e+02
9.600000381469726562e+00,1.919813537597656250e+02
9.640000343322753906e+00,1.915525360107421875e+02
9.680000305175781250e+00,1.912546997070312500e+02
9.720000267028808594e+00,1.909464416503906250e+02
9.760000228881835938e+00,1.906349945068359375e+02
9.800000190734863281e+00,1.900137481689453125e+02
9.840000152587890625e+00,1.890770721435546875e+02
9.880000114440917969e+00,1.881193389892578125e+02
9.920000076293945312e+00,1.871670532226562500e+02
9.960000038146972656e+00,1.864193878173828125e+02
1.000000000000000000e+01,1.837093048095703125e+02
1.003999996185302734e+01,1.789017639160156250e+02
1.007999992370605469e+01,1.741069488525390625e+02
1.011999988555908203e+01,1.693428497314453125e+02
1.015999984741210938e+01,1.645920562744140625e+02
1.019999980926513672e+01,1.594052734375000000e+02
1.023999977111816406e+01,1.595284118652343750e+02
1.027999973297119141e+01,1.596462402343750000e+02
1.032000064849853516e+01,1.597415618896484375e+02
1.036000061035156250e+01,1.598318176269531250e+02
1.040000057220458984e+01,1.605447387695312500e+02
1.044000053405761719e+01,1.616514892578125000e+02
1.048000049591064453e+01,1.620449981689453125e+02
1.052000045776367188e+01,1.624344787597656250e+02
1.056000041961669922e+01,1.628205261230468750e+02
1.060000038146972656e+01,1.627735290527343750e+02
1.064000034332275391e+01,1.622958221435546875e+02
1.068000030517578125e+01,1.618170928955078125e+02
1.072000026702880859e+01,1.613440246582031250e+02
1.076000022888183594e+01,1.608701629638671875e+02
1.080000019073486328e+01,1.603122558593750000e+02
1.084000015258789062e+01,1.596598968505859375e+02
1.088000011444091797e+01,1.590022277832031250e+02
1.092000007629394531e+01,1.583455657958984375e+02
1.096000003814697266e+01,1.576892395019531250e+02
1.100000000000000000e+01,1.569542541503906250e+02
1.103999996185302734e+01,1.561411590576171875e+02
1.107999992370605469e+01,1.553294372558593750e+02
1.111999988555908203e+01,1.551179046630859375e+02
1.115999984741210938e+01,1.549050750732421875e+02
1.119999980926513672e+01,1.543261871337890625e+02
1.123999977111816406e+01,1.533815155029296875e+02
1.127999973297119141e+01,1.524359283447265625e+02
1.131999969482421875e+01,1.515264129638671875e+02
1.136000061035156250e+01,1.506157226562500000e+02
1.140000057220458984e+01,1.489734191894531250e+02
1.144000053405761719e+01,1.465982208251953125e+02
1.148000049591064453e+01,1.442196197509765625e+02
1.152000045776367188e+01,1.417015838623046875e+02
1.156000041961669922e+01,1.354384460449218750e+02
1.160000038146972656e+01,1.336245117187500000e+02
1.164000034332275391e+01,1.330791473388671875e+02
1.168000030517578125e+01,1.325303039550781250e+02
1.172000026702880859e+01,1.319825897216796875e+02
1.176000022888183594e+01,1.314295654296875000e+02
1.180000019073486328e+01,1.307937927246093750e+02
1.184000015258789062e+01,1.300782623291015625e+02
1.188000011444091797e+01,1.293632659912109375e+02
1.192000007629394531e+01,1.286359558105468750e+02
1.196000003814697266e+01,1.279051513671875000e+02
1.200000000000000000e+01,1.270776367187500000e+02
1.203999996185302734e+01,1.261541595458984375e+02
1.207999992370605469e+01,1.255002365112304688e+02
1.211999988555908203e+01,1.256299743652343750e+02
1.215999984741210938e+01,1.257589416503906250e+02
1.219999980926513672e+01,1.258329315185546875e+02
1.223999977111816406e+01,1.258517608642578125e+02
1.227999973297119141e+01,1.258699188232421875e+02
1.231999969482421875e+01,1.258916244506835938e+02
1.236000061035156250e+01,1.259127731323242188e+02
1.240000057220458984e+01,1.258524551391601562e+02
1.244000053405761719e+01,1.257111053466796875e+02
1.248000049591064453e+01,1.255691146850585938e+02
1.252000045776367188e+01,1.254191436767578125e+02
1.256000041961669922e+01,1.252688140869140625e+02
1.260000038146972656e+01,1.250722122192382812e+02
1.264000034332275391e+01,1.248295288085937500e+02
1.268000030517578125e+01,1.245866241455078125e+02
1.272000026702880859e+01,1.243506393432617188e+02
1.276000022888183594e+01,1.241142654418945312e+02
1.280000019073486328e+01,1.238483123779296875e+02
1.284000015258789062e+01,1.235527954101562500e+02
1.288000011444091797e+01,1.232575073242187500e+02
1.292000007629394531e+01,1.229569091796875000e+02
1.296000003814697266e+01,1.226561508178710938e+02
1.300000000000000000e+01,1.222357330322265625e+02
1.303999996185302734e+01,1.216960601806640625e+02
1.307999992370605469e+01,1.211570510864257812e+02
1.311999988555908203e+01,1.206142654418945312e+02
1.315999984741210938e+01,1.200705490112304688e+02
1.319999980926513672e+01,1.194578018188476562e+02
1.323999977111816406e+01,1.187767715454101562e+02
1.327999973297119141e+01,1.180589828491210938e+02
1.331999969482421875e+01,1.162749023437500000e+02
1.335999965667724609e+01,1.156196289062500000e+02
1.340000057220458984e+01,1.151561889648437500e+02
1.344000053405761719e+01,1.148381881713867188e+02
1.348000049591064453e+01,1.145198516845703125e+02
1.352000045776367188e+01,1.142116851806640625e+02
1.356000041961669922e+01,1.139032440185546875e+02
1.360000038146972656e+01,1.135564498901367188e+02
1.364000034332275391e+01,1.131716156005859375e+02
1.368000030517578125e+01,1.127862472534179688e+02
1.372000026702880859e+01,1.123916397094726562e+02
1.376000022888183594e+01,1.119968490600585938e+02
1.380000019073486328e+01,1.115724792480468750e+02
1.384000015258789062e+01,1.107346649169921875e+02
1.388000011444091797e+01,1.102901840209960938e+02
1.392000007629394531e+01,1.100319824218750000e+02
1.396000003814697266e+01,1.097742767333984375e+02
1.400000000000000000e+01,1.095389480590820312e+02
1.403999996185302734e+01,1.093259963989257812e+02
1.407999992370605469e+01,1.091127624511718750e+02
1.411999988555908203e+01,1.089214477539062500e+02
1.415999984741210938e+01,1.087298278808593750e+02
1.419999980926513672e+01,1.085357971191406250e+02
1.423999977111816406e+01,1.083393402099609375e+02
1.427999973297119141e+01,1.081425857543945312e+02
1.431999969482421875e+01,1.079282531738281250e+02
1.435999965667724609e+01,1.077137374877929688e+02
1.439999961853027344e+01,1.074878540039062500e+02
1.444000053405761719e+01,1.072472381591796875e+02
1.448000049591064453e+01,1.070066833496093750e+02
1.452000045776367188e+01,1.067719421386718750e+02
1.456000041961669922e+01,1.065370330810546875e+02
1.460000038146972656e+01,1.063002853393554688e+02
1.464000034332275391e+01,1.060616149902343750e+02
1.468000030517578125e+01,1.058228454589843750e+02
1.472000026702880859e+01,1.055944213867187500e+02
1.476000022888183594e+01,1.053658370971679688e+02
1.480000019073486328e+01,1.051359405517578125e+02
1.484000015258789062e+01,1.049046783447265625e+02
1.488000011444091797e+01,1.046730499267578125e+02
1.492000007629394531e+01,1.044264907836914062e+02
1.496000003814697266e+01,1.041798477172851562e+02
1.500000000000000000e+01,1.039336776733398438e+02
1.503999996185302734e+01,1.036878814697265625e+02
1.507999992370605469e+01,1.034419479370117188e+02
1.511999988555908203e+01,1.032008209228515625e+02
1.515999984741210938e+01,1.029595947265625000e+02
1.519999980926513672e+01,1.027155151367187500e+02
1.523999977111816406e+01,1.024685668945312500e+02
1.527999973297119141e+01,1.022214736938476562e+02
1.531999969482421875e+01,1.019786758422851562e+02
1.535999965667724609e+01,1.017357177734375000e+02
1.539999961853027344e+01,1.014936065673828125e+02
1.544000053405761719e+01,1.012523727416992188e+02
1.548000049591064453e+01,1.010109558105468750e+02
1.552000045776367188e+01,1.007698974609375000e+02
1.556000041961669922e+01,1.005285873413085938e+02
1.560000038146972656e+01,1.002936172485351562e+02
1.564000034332275391e+01,1.000649414062500000e+02
1.568000030517578125e+01,9.983600616455078125e+01
1.572000026702880859e+01,9.961334991455078125e+01
1.576000022888183594e+01,9.939067077636718750e+01
1.580000019073486328e+01,9.916276550292968750e+01
1.584000015258789062e+01,9.892959594726562500e+01
1.588000011444091797e+01,9.869417572021484375e+01
1.592000007629394531e+01,9.846451568603515625e+01
1.596000003814697266e+01,9.823454284667968750e+01
1.600000000000000000e+01,9.800477600097656250e+01
1.603999900817871094e+01,9.777516174316406250e+01
1.607999992370605469e+01,9.754526519775390625e+01
1.611999893188476562e+01,9.732086944580078125e+01
1.615999984741210938e+01,9.709611511230468750e+01
1.619999885559082031e+01,9.687107086181640625e+01
1.623999977111816406e+01,9.664565277099609375e+01
1.627999877929687500e+01,9.641995239257812500e+01
1.631999969482421875e+01,9.618762207031250000e+01
1.635999870300292969e+01,9.595502471923828125e+01
1.639999961853027344e+01,9.572216033935546875e+01
1.643999862670898438e+01,9.548904418945312500e+01
1.647999954223632812e+01,9.525559234619140625e+01
1.652000045776367188e+01,9.502410888671875000e+01
1.655999946594238281e+01,9.479241180419921875e+01
1.660000038146972656e+01,9.456046295166015625e+01
1.663999938964843750e+01,9.432824707031250000e+01
1.668000030517578125e+01,9.409580993652343750e+01
1.671999931335449219e+01,9.386282348632812500e+01
1.676000022888183594e+01,9.362956237792968750e+01
1.679999923706054688e+01,9.339607238769531250e+01
1.684000015258789062e+01,9.316232299804687500e+01
1.687999916076660156e+01,9.292833709716796875e+01
1.692000007629394531e+01,9.269467163085937500e+01
1.695999908447265625e+01,9.246080780029296875e+01
1.700000000000000000e+01,9.222284698486328125e+01
1.703999900817871094e+01,9.198078918457031250e+01
1.707999992370605469e+01,9.173866271972656250e+01
1.711999893188476562e+01,9.150340270996093750e+01
1.715999984741210938e+01,9.126799774169921875e+01
1.719999885559082031e+01,9.103255462646484375e+01
1.723999977111816406e+01,9.079701232910156250e+01
1.727999877929687500e+01,9.052993011474609375e+01
1.731999969482421875e+01,9.024417114257812500e+01
1.735999870300292969e+01,8.995866394042968750e+01
1.739999961853027344e+01,8.967331695556640625e+01
1.743999862670898438e+01,8.938781738281250000e+01
1.747999954223632812e+01,8.910148620605468750e+01
