# Start of Energy Bin (keV), Effective Area (cm^2)
1.600000023841857910e+00,5.770341157913208008e-01
1.639999985694885254e+00,8.012285232543945312e-01
1.680000066757202148e+00,1.108360290527343750e+00
1.720000028610229492e+00,1.527842521667480469e+00
1.759999990463256836e+00,2.068569183349609375e+00
1.799999952316284180e+00,2.606303453445434570e+00
1.840000033378601074e+00,1.444415688514709473e+00
1.879999995231628418e+00,1.842787504196166992e+00
1.920000076293945312e+00,2.406379699707031250e+00
1.960000038146972656e+00,3.036974668502807617e+00
2.000000000000000000e+00,3.762948989868164062e+00
2.039999961853027344e+00,4.620940685272216797e+00
2.079999923706054688e+00,5.666265964508056641e+00
2.119999885559082031e+00,5.165112495422363281e+00
2.160000085830688477e+00,6.004060268402099609e+00
2.200000047683715820e+00,6.268366813659667969e+00
2.240000009536743164e+00,7.182839393615722656e+00
2.279999971389770508e+00,8.253262519836425781e+00
2.319999933242797852e+00,9.570945739746093750e+00
2.360000133514404297e+00,1.085223579406738281e+01
2.400000095367431641e+00,1.208244991302490234e+01
2.440000057220458984e+00,1.347593688964843750e+01
2.480000019073486328e+00,1.510474109649658203e+01
2.519999980926513672e+00,1.706695938110351562e+01
2.559999942779541016e+00,1.922392463684082031e+01
2.599999904632568359e+00,2.118030357360839844e+01
2.639999866485595703e+00,2.159537887573242188e+01
2.679999828338623047e+00,2.355536842346191406e+01
2.720000028610229492e+00,2.566694450378417969e+01
2.759999990463256836e+00,2.795157623291015625e+01
2.799999952316284180e+00,3.041257095336914062e+01
2.840000152587890625e+00,3.295721817016601562e+01
2.880000114440917969e+00,3.515300369262695312e+01
2.920000076293945312e+00,3.745283126831054688e+01
2.960000038146972656e+00,3.988954925537109375e+01
3.000000000000000000e+00,4.250432586669921875e+01
3.039999961853027344e+00,4.401455307006835938e+01
3.079999923706054688e+00,4.666170120239257812e+01
3.119999885559082031e+00,4.940360641479492188e+01
3.159999847412109375e+00,5.167900848388671875e+01
3.199999809265136719e+00,5.402771759033203125e+01
3.240000009536743164e+00,5.645318603515625000e+01
3.279999971389770508e+00,5.817318344116210938e+01
3.319999933242797852e+00,6.158634185791015625e+01
3.360000133514404297e+00,6.517273712158203125e+01
3.400000095367431641e+00,6.892457580566406250e+01
3.440000057220458984e+00,7.170172119140625000e+01
3.480000019073486328e+00,7.367129516601562500e+01
3.519999980926513672e+00,7.098072814941406250e+01
3.559999942779541016e+00,7.293120574951171875e+01
3.599999904632568359e+00,7.495514678955078125e+01
3.639999866485595703e+00,7.700631713867187500e+01
3.679999828338623047e+00,7.908737945556640625e+01
3.719999790191650391e+00,7.875421142578125000e+01
3.759999752044677734e+00,8.089663696289062500e+01
3.800000190734863281e+00,8.276539611816406250e+01
3.840000152587890625e+00,8.444432067871093750e+01
3.880000114440917969e+00,8.612658691406250000e+01
3.920000076293945312e+00,8.829290771484375000e+01
3.960000038146972656e+00,9.064720153808593750e+01
4.000000000000000000e+00,9.170382690429687500e+01
4.039999961853027344e+00,9.401329803466796875e+01
4.079999923706054688e+00,9.635225677490234375e+01
4.119999885559082031e+00,9.872872924804687500e+01
4.159999847412109375e+00,1.011091003417968750e+02
4.199999809265136719e+00,1.031605758666992188e+02
4.239999771118164062e+00,1.052254714965820312e+02
4.279999732971191406e+00,1.073092346191406250e+02
4.320000171661376953e+00,1.048866577148437500e+02
4.360000133514404297e+00,1.053170928955078125e+02
4.400000095367431641e+00,1.070726165771484375e+02
4.440000057220458984e+00,1.088391952514648438e+02
4.480000019073486328e+00,1.106267089843750000e+02
4.519999980926513672e+00,1.124345550537109375e+02
4.559999942779541016e+00,1.142407379150390625e+02
4.599999904632568359e+00,1.126920623779296875e+02
4.639999866485595703e+00,1.143333740234375000e+02
4.679999828338623047e+00,1.158175201416015625e+02
4.719999790191650391e+00,1.172935943603515625e+02
4.759999752044677734e+00,1.187705078125000000e+02
4.799999713897705078e+00,1.202481994628906250e+02
4.840000152587890625e+00,1.217189254760742188e+02
4.880000114440917969e+00,1.231870040893554688e+02
4.920000076293945312e+00,1.231121368408203125e+02
4.960000038146972656e+00,1.245839157104492188e+02
5.000000000000000000e+00,1.260224609375000000e+02
5.039999961853027344e+00,1.275332031250000000e+02
5.079999923706054688e+00,1.289467315673828125e+02
5.119999885559082031e+00,1.303557586669921875e+02
5.159999847412109375e+00,1.317612609863281250e+02
5.199999809265136719e+00,1.331612243652343750e+02
5.239999771118164062e+00,1.345569763183593750e+02
5.279999732971191406e+00,1.359526672363281250e+02
5.320000171661376953e+00,1.373477935791015625e+02
5.360000133514404297e+00,1.387427825927734375e+02
5.400000095367431641e+00,1.401345977783203125e+02
5.440000057220458984e+00,1.415217742919921875e+02
5.480000019073486328e+00,1.429075317382812500e+02
5.519999980926513672e+00,1.442968444824218750e+02
5.559999942779541016e+00,1.455852050781250000e+02
5.599999904632568359e+00,1.467666931152343750e+02
5.639999866485595703e+00,1.479434356689453125e+02
5.679999828338623047e+00,1.491168365478515625e+02
5.719999790191650391e+00,1.502785797119140625e+02
5.759999752044677734e+00,1.514369812011718750e+02
5.799999713897705078e+00,1.525790710449218750e+02
5.839999675750732422e+00,1.537057342529296875e+02
5.879999637603759766e+00,1.548288269042968750e+02
5.919999599456787109e+00,1.559523010253906250e+02
5.960000038146972656e+00,1.570721435546875000e+02
6.000000000000000000e+00,1.581047973632812500e+02
6.039999961853027344e+00,1.590482940673828125e+02
6.079999923706054688e+00,1.599868011474609375e+02
6.119999885559082031e+00,1.608490753173828125e+02
6.159999847412109375e+00,1.616541290283203125e+02
6.199999809265136719e+00,1.624595031738281250e+02
6.239999771118164062e+00,1.632657165527343750e+02
6.279999732971191406e+00,1.640668640136718750e+02
6.319999694824218750e+00,1.648576507568359375e+02
6.359999656677246094e+00,1.656432495117187500e+02
6.399999618530273438e+00,1.664195709228515625e+02
6.439999580383300781e+00,1.671867675781250000e+02
6.480000019073486328e+00,1.679491271972656250e+02
6.519999980926513672e+00,1.687073059082031250e+02
6.559999942779541016e+00,1.694608764648437500e+02
6.599999904632568359e+00,1.702057037353515625e+02
6.639999866485595703e+00,1.709418334960937500e+02
6.679999828338623047e+00,1.716735839843750000e+02
6.719999790191650391e+00,1.723654022216796875e+02
6.759999752044677734e+00,1.729787597656250000e+02
6.799999713897705078e+00,1.735791015625000000e+02
6.839999675750732422e+00,1.741666717529296875e+02
6.879999637603759766e+00,1.747497406005859375e+02
6.919999599456787109e+00,1.753294372558593750e+02
6.959999561309814453e+00,1.759048156738281250e+02
7.000000000000000000e+00,1.764428558349609375e+02
7.039999961853027344e+00,1.769432983398437500e+02
7.079999923706054688e+00,1.774404296875000000e+02
7.119999885559082031e+00,1.769906768798828125e+02
7.159999847412109375e+00,1.774697723388671875e+02
7.199999809265136719e+00,1.779477539062500000e+02
7.239999771118164062e+00,1.784252624511718750e+02
7.279999732971191406e+00,1.788987731933593750e+02
7.319999694824218750e+00,1.793712921142578125e+02
7.359999656677246094e+00,1.798398742675781250e+02
7.399999618530273438e+00,1.802948913574218750e+02
7.439999580383300781e+00,1.807364196777343750e+02
7.479999542236328125e+00,1.811743774414062500e+02
7.519999980926513672e+00,1.816061248779296875e+02
7.559999942779541016e+00,1.820342712402343750e+02
7.599999904632568359e+00,1.824472656250000000e+02
7.639999866485595703e+00,1.828448333740234375e+02
7.679999828338623047e+00,1.832390747070312500e+02
7.719999790191650391e+00,1.836474304199218750e+02
7.759999752044677734e+00,1.840528869628906250e+02
7.799999713897705078e+00,1.844397125244140625e+02
7.839999675750732422e+00,1.848074035644531250e+02
7.879999637603759766e+00,1.851719360351562500e+02
7.919999599456787109e+00,1.855188903808593750e+02
7.959999561309814453e+00,1.858626403808593750e+02
7.999999523162841797e+00,1.861573944091796875e+02
8.039999961853027344e+00,1.864030456542968750e+02
8.079999923706054688e+00,1.866455688476562500e+02
8.119999885559082031e+00,1.868881835937500000e+02
8.159999847412109375e+00,1.870773010253906250e+02
8.199999809265136719e+00,1.872301635742187500e+02
8.239999771118164062e+00,1.873774566650390625e+02
8.279999732971191406e+00,1.876132202148437500e+02
8.319999694824218750e+00,1.878428802490234375e+02
8.359999656677246094e+00,1.880696411132812500e+02
8.399999618530273438e+00,1.882579193115234375e+02
8.439999580383300781e+00,1.884079895019531250e+02
8.479999542236328125e+00,1.885549926757812500e+02
8.520000457763671875e+00,1.887244262695312500e+02
8.560000419616699219e+00,1.888908386230468750e+02
8.600000381469726562e+00,1.890203094482421875e+02
8.640000343322753906e+00,1.891124877929687500e+02
8.680000305175781250e+00,1.892016143798828125e+02
8.720000267028808594e+00,1.892695007324218750e+02
8.760000228881835938e+00,1.893343811035156250e+02
8.800000190734863281e+00,1.893669586181640625e+02
8.840000152587890625e+00,1.893671875000000000e+02
8.880000114440917969e+00,1.893642578125000000e+02
8.920000076293945312e+00,1.893820190429687500e+02
8.960000038146972656e+00,1.893692016601562500e+02
9.000000000000000000e+00,1.893106536865234375e+02
9.039999961853027344e+00,1.892216644287109375e+02
9.079999923706054688e+00,1.891296081542968750e+02
9.119999885559082031e+00,1.890315856933593750e+02
9.159999847412109375e+00,1.890359344482421875e+02
9.199999809265136719e+00,1.890100555419921875e+02
9.239999771118164062e+00,1.889538269042968750e+02
9.279999732971191406e+00,1.888943023681640625e+02
9.319999694824218750e+00,1.888526916503906250e+02
9.359999656677246094e+00,1.888078002929687500e+02
9.399999618530273438e+00,1.887265930175781250e+02
9.439999580383300781e+00,1.886091308593750000e+02
9.479999542236328125e+00,1.884883270263671875e+02
9.519999504089355469e+00,1.883675231933593750e+02
9.560000419616699219e+00,1.882436218261718750e+02
9.600000381469726562e+00,1.879706268310546875e+02
9.640000343322753906e+00,1.875922088623046875e+02
9.680000305175781250e+00,1.873418273925781250e+02
9.720000267028808594e+00,1.870749511718750000e+02
9.760000228881835938e+00,1.868047637939453125e+02
9.800000190734863281e+00,1.862356872558593750e+02
9.840000152587890625e+00,1.853620300292968750e+02
9.880000114440917969e+00,1.844673156738281250e+02
9.920000076293945312e+00,1.835888824462890625e+02
9.960000038146972656e+00,1.828848114013671875e+02
1.000000000000000000e+01,1.802768402099609375e+02
1.003999996185302734e+01,1.756483764648437500e+02
1.007999992370605469e+01,1.710287475585937500e+02
1.011999988555908203e+01,1.664193420410156250e+02
1.015999984741210938e+01,1.618201599121093750e+02
1.019999980926513672e+01,1.568018798828125000e+02
1.023999977111816406e+01,1.569384918212890625e+02
1.027999973297119141e+01,1.570699157714843750e+02
1.032000064849853516e+01,1.571905212402343750e+02
1.036000061035156250e+01,1.573061828613281250e+02
1.040000057220458984e+01,1.580214233398437500e+02
1.044000053405761719e+01,1.591105957031250000e+02
1.048000049591064453e+01,1.594966735839843750e+02
1.052000045776367188e+01,1.598803710937500000e+02
1.056000041961669922e+01,1.602605743408203125e+02
1.060000038146972656e+01,1.602153320312500000e+02
1.064000034332275391e+01,1.597469024658203125e+02
1.068000030517578125e+01,1.592773437500000000e+02
1.072000026702880859e+01,1.588056945800781250e+02
1.076000022888183594e+01,1.583331146240234375e+02
1.080000019073486328e+01,1.577765502929687500e+02
1.084000015258789062e+01,1.571257171630859375e+02
1.088000011444091797e+01,1.564696350097656250e+02
1.092000007629394531e+01,1.557954406738281250e+02
1.096000003814697266e+01,1.551216735839843750e+02
1.100000000000000000e+01,1.543692932128906250e+02
1.103999996185302734e+01,1.535388793945312500e+02
1.107999992370605469e+01,1.527100524902343750e+02
1.111999988555908203e+01,1.525018920898437500e+02
1.115999984741210938e+01,1.522924804687500000e+02
1.119999980926513672e+01,1.517203826904296875e+02
1.123999977111816406e+01,1.507859039306640625e+02
1.127999973297119141e+01,1.498505554199218750e+02
1.131999969482421875e+01,1.489393920898437500e+02
1.136000061035156250e+01,1.480272674560546875e+02
1.140000057220458984e+01,1.463958587646484375e+02
1.144000053405761719e+01,1.440441284179687500e+02
1.148000049591064453e+01,1.416896820068359375e+02
1.152000045776367188e+01,1.391968688964843750e+02
1.156000041961669922e+01,1.330324859619140625e+02
1.160000038146972656e+01,1.312415924072265625e+02
1.164000034332275391e+01,1.306983947753906250e+02
1.168000030517578125e+01,1.301518554687500000e+02
1.172000026702880859e+01,1.296218872070312500e+02
1.176000022888183594e+01,1.290867004394531250e+02
1.180000019073486328e+01,1.284797363281250000e+02
1.184000015258789062e+01,1.278037414550781250e+02
1.188000011444091797e+01,1.271279907226562500e+02
1.192000007629394531e+01,1.264237518310546875e+02
1.196000003814697266e+01,1.257159652709960938e+02
1.200000000000000000e+01,1.249141769409179688e+02
1.203999996185302734e+01,1.240190582275390625e+02
1.207999992370605469e+01,1.233861389160156250e+02
1.211999988555908203e+01,1.235209808349609375e+02
1.215999984741210938e+01,1.236551208496093750e+02
1.219999980926513672e+01,1.237342376708984375e+02
1.223999977111816406e+01,1.237581329345703125e+02
1.227999973297119141e+01,1.237813949584960938e+02
1.231999969482421875e+01,1.238100891113281250e+02
1.236000061035156250e+01,1.238382339477539062e+02
1.240000057220458984e+01,1.237868652343750000e+02
1.244000053405761719e+01,1.236563720703125000e+02
1.248000049591064453e+01,1.235252456665039062e+02
1.252000045776367188e+01,1.233771972656250000e+02
1.256000041961669922e+01,1.232287826538085938e+02
1.260000038146972656e+01,1.230359649658203125e+02
1.264000034332275391e+01,1.227988891601562500e+02
1.268000030517578125e+01,1.225615997314453125e+02
1.272000026702880859e+01,1.223412399291992188e+02
1.276000022888183594e+01,1.221204605102539062e+02
1.280000019073486328e+01,1.218711853027343750e+02
1.284000015258789062e+01,1.215934448242187500e+02
1.288000011444091797e+01,1.213158416748046875e+02
1.292000007629394531e+01,1.210247116088867188e+02
1.296000003814697266e+01,1.207334289550781250e+02
1.300000000000000000e+01,1.203190994262695312e+02
1.303999996185302734e+01,1.197821655273437500e+02
1.307999992370605469e+01,1.192459259033203125e+02
1.311999988555908203e+01,1.187078552246093750e+02
1.315999984741210938e+01,1.181688461303710938e+02
1.319999980926513672e+01,1.175619812011718750e+02
1.323999977111816406e+01,1.168879776000976562e+02
1.327999973297119141e+01,1.161828155517578125e+02
1.331999969482421875e+01,1.144255371093750000e+02
1.335999965667724609e+01,1.137841033935546875e+02
1.340000057220458984e+01,1.133341064453125000e+02
1.344000053405761719e+01,1.130282669067382812e+02
1.348000049591064453e+01,1.127220611572265625e+02
1.352000045776367188e+01,1.124226150512695312e+02
1.356000041961669922e+01,1.121228942871093750e+02
1.360000038146972656e+01,1.117845230102539062e+02
1.364000034332275391e+01,1.114078369140625000e+02
1.368000030517578125e+01,1.110306091308593750e+02
1.372000026702880859e+01,1.106492004394531250e+02
1.376000022888183594e+01,1.102675704956054688e+02
1.380000019073486328e+01,1.098566131591796875e+02
1.384000015258789062e+01,1.090383300781250000e+02
1.388000011444091797e+01,1.086087341308593750e+02
1.392000007629394531e+01,1.083676528930664062e+02
1.396000003814697266e+01,1.081270141601562500e+02
1.400000000000000000e+01,1.079075317382812500e+02
1.403999996185302734e+01,1.077092285156250000e+02
1.407999992370605469e+01,1.075106048583984375e+02
1.411999988555908203e+01,1.073231964111328125e+02
1.415999984741210938e+01,1.071354751586914062e+02
1.419999980926513672e+01,1.069443588256835938e+02
1.423999977111816406e+01,1.067498626708984375e+02
1.427999973297119141e+01,1.065550537109375000e+02
1.431999969482421875e+01,1.063636932373046875e+02
1.435999965667724609e+01,1.061720809936523438e+02
1.439999961853027344e+01,1.059682922363281250e+02
1.444000053405761719e+01,1.057490463256835938e+02
1.448000049591064453e+01,1.055297546386718750e+02
1.452000045776367188e+01,1.053007736206054688e+02
1.456000041961669922e+01,1.050715789794921875e+02
1.460000038146972656e+01,1.048398056030273438e+02
1.464000034332275391e+01,1.046053924560546875e+02
1.468000030517578125e+01,1.043708496093750000e+02
1.472000026702880859e+01,1.041402664184570312e+02
1.476000022888183594e+01,1.039095458984375000e+02
1.480000019073486328e+01,1.036767883300781250e+02
1.484000015258789062e+01,1.034419479370117188e+02
1.488000011444091797e+01,1.032067642211914062e+02
1.492000007629394531e+01,1.029580917358398438e+02
1.496000003814697266e+01,1.027093276977539062e+02
1.500000000000000000e+01,1.024606628417968750e+02
1.503999996185302734e+01,1.022119979858398438e+02
1.507999992370605469e+01,1.019631958007812500e+02
1.511999988555908203e+01,1.017279891967773438e+02
1.515999984741210938e+01,1.014926452636718750e+02
1.519999980926513672e+01,1.012539291381835938e+02
1.523999977111816406e+01,1.010118408203125000e+02
1.527999973297119141e+01,1.007695770263671875e+02
1.531999969482421875e+01,1.005349578857421875e+02
1.535999965667724609e+01,1.003001251220703125e+02
1.539999961853027344e+01,1.000657577514648438e+02
1.544000053405761719e+01,9.983184814453125000e+01
1.548000049591064453e+01,9.959773254394531250e+01
1.552000045776367188e+01,9.936466979980468750e+01
1.556000041961669922e+01,9.913134002685546875e+01
1.560000038146972656e+01,9.890393066406250000e+01
1.564000034332275391e+01,9.868238830566406250e+01
1.568000030517578125e+01,9.846057891845703125e+01
1.572000026702880859e+01,9.822494506835937500e+01
1.576000022888183594e+01,9.798927307128906250e+01
1.580000019073486328e+01,9.774815368652343750e+01
1.584000015258789062e+01,9.750151062011718750e+01
1.588000011444091797e+01,9.725275421142578125e+01
1.592000007629394531e+01,9.701884460449218750e+01
1.596000003814697266e+01,9.678463745117187500e+01
1.600000000000000000e+01,9.654963684082031250e+01
1.603999900817871094e+01,9.631380462646484375e+01
1.607999992370605469e+01,9.607771301269531250e+01
1.611999893188476562e+01,9.585643005371093750e+01
1.615999984741210938e+01,9.563479614257812500e+01
1.619999885559082031e+01,9.541286468505859375e+01
1.623999977111816406e+01,9.519055938720703125e+01
1.627999877929687500e+01,9.496797180175781250e+01
1.631999969482421875e+01,9.472653961181640625e+01
1.635999870300292969e+01,9.448492431640625000e+01
1.639999961853027344e+01,9.424308776855468750e+01
1.643999862670898438e+01,9.400107574462890625e+01
1.647999954223632812e+01,9.375877380371093750e+01
1.652000045776367188e+01,9.351675415039062500e+01
1.655999946594238281e+01,9.327458953857421875e+01
1.660000038146972656e+01,9.303224945068359375e+01
1.663999938964843750e+01,9.278970336914062500e+01
1.668000030517578125e+01,9.254698944091796875e+01
1.671999931335449219e+01,9.230665588378906250e+01
1.676000022888183594e+01,9.206610870361328125e+01
1.679999923706054688e+01,9.182537841796875000e+01
1.684000015258789062e+01,9.158444213867187500e+01
1.687999916076660156e+01,9.134331512451171875e+01
1.692000007629394531e+01,9.109994506835937500e+01
1.695999908447265625e+01,9.085646057128906250e+01
1.700000000000000000e+01,9.061297607421875000e+01
1.703999900817871094e+01,9.036949157714843750e+01
1.707999992370605469e+01,9.012593078613281250e+01
1.711999893188476562e+01,8.989184570312500000e+01
1.715999984741210938e+01,8.965761566162109375e+01
1.719999885559082031e+01,8.942334747314453125e+01
1.723999977111816406e+01,8.918901062011718750e+01
1.727999877929687500e+01,8.891973876953125000e+01
1.731999969482421875e+01,8.863591003417968750e+01
1.735999870300292969e+01,8.835235595703125000e+01
1.739999961853027344e+01,8.806893920898437500e+01
1.743999862670898438e+01,8.778539276123046875e+01
1.747999954223632812e+01,8.750104522705078125e+01
