# Start of Energy Bin (keV), Effective Area (cm^2)
1.600000023841857910e+00,8.230637907981872559e-01
1.639999985694885254e+00,1.136053681373596191e+00
1.680000066757202148e+00,1.563519597053527832e+00
1.720000028610229492e+00,2.145929813385009766e+00
1.759999990463256836e+00,2.894763469696044922e+00
1.799999952316284180e+00,3.642879962921142578e+00
1.840000033378601074e+00,2.019897222518920898e+00
1.879999995231628418e+00,2.566423654556274414e+00
1.920000076293945312e+00,3.322870969772338867e+00
1.960000038146972656e+00,4.159716129302978516e+00
2.000000000000000000e+00,5.110511302947998047e+00
2.039999961853027344e+00,6.220440864562988281e+00
2.079999923706054688e+00,7.563029289245605469e+00
2.119999885559082031e+00,6.803404331207275391e+00
2.160000085830688477e+00,7.873770713806152344e+00
2.200000047683715820e+00,8.167809486389160156e+00
2.240000009536743164e+00,9.326589584350585938e+00
2.279999971389770508e+00,1.068063831329345703e+01
2.319999933242797852e+00,1.233814334869384766e+01
2.360000133514404297e+00,1.393801021575927734e+01
2.400000095367431641e+00,1.546437931060791016e+01
2.440000057220458984e+00,1.719370841979980469e+01
2.480000019073486328e+00,1.921646308898925781e+01
2.519999980926513672e+00,2.165854072570800781e+01
2.559999942779541016e+00,2.434109306335449219e+01
2.599999904632568359e+00,2.676672554016113281e+01
2.639999866485595703e+00,2.719670486450195312e+01
2.679999828338623047e+00,2.962203025817871094e+01
2.720000028610229492e+00,3.223347473144531250e+01
2.759999990463256836e+00,3.505761337280273438e+01
2.799999952316284180e+00,3.809865570068359375e+01
2.840000152587890625e+00,4.123530197143554688e+01
2.880000114440917969e+00,4.392842864990234375e+01
2.920000076293945312e+00,4.674637603759765625e+01
2.960000038146972656e+00,4.973115539550781250e+01
3.000000000000000000e+00,5.314662170410156250e+01
3.039999961853027344e+00,5.537405395507812500e+01
3.079999923706054688e+00,5.910094833374023438e+01
3.119999885559082031e+00,6.299699401855468750e+01
3.159999847412109375e+00,6.634205627441406250e+01
3.199999809265136719e+00,6.982176971435546875e+01
3.240000009536743164e+00,7.344236755371093750e+01
3.279999971389770508e+00,7.616112518310546875e+01
3.319999933242797852e+00,7.904782867431640625e+01
3.360000133514404297e+00,8.200306701660156250e+01
3.400000095367431641e+00,8.503285217285156250e+01
3.440000057220458984e+00,8.814599609375000000e+01
3.480000019073486328e+00,9.073332977294921875e+01
3.519999980926513672e+00,8.940843200683593750e+01
3.559999942779541016e+00,9.201733398437500000e+01
3.599999904632568359e+00,9.470817565917968750e+01
3.639999866485595703e+00,9.744174957275390625e+01
3.679999828338623047e+00,1.002241744995117188e+02
3.719999790191650391e+00,1.009565277099609375e+02
3.759999752044677734e+00,1.038419342041015625e+02
3.800000190734863281e+00,1.063980560302734375e+02
3.840000152587890625e+00,1.087187118530273438e+02
3.880000114440917969e+00,1.110565795898437500e+02
3.920000076293945312e+00,1.136907653808593750e+02
3.960000038146972656e+00,1.164505691528320312e+02
4.000000000000000000e+00,1.180695800781250000e+02
4.039999961853027344e+00,1.207613830566406250e+02
4.079999923706054688e+00,1.234836120605468750e+02
4.119999885559082031e+00,1.262467422485351562e+02
4.159999847412109375e+00,1.290065002441406250e+02
4.199999809265136719e+00,1.313397827148437500e+02
4.239999771118164062e+00,1.336840057373046875e+02
4.279999732971191406e+00,1.360449218750000000e+02
4.320000171661376953e+00,1.345364837646484375e+02
4.360000133514404297e+00,1.355489196777343750e+02
4.400000095367431641e+00,1.377324371337890625e+02
4.440000057220458984e+00,1.399296875000000000e+02
4.480000019073486328e+00,1.421493835449218750e+02
4.519999980926513672e+00,1.443851776123046875e+02
4.559999942779541016e+00,1.466244812011718750e+02
4.599999904632568359e+00,1.458736877441406250e+02
4.639999866485595703e+00,1.478341217041015625e+02
4.679999828338623047e+00,1.496606750488281250e+02
4.719999790191650391e+00,1.514835815429687500e+02
4.759999752044677734e+00,1.533096618652343750e+02
4.799999713897705078e+00,1.551369781494140625e+02
4.840000152587890625e+00,1.569591064453125000e+02
4.880000114440917969e+00,1.587805480957031250e+02
4.920000076293945312e+00,1.592658538818359375e+02
4.960000038146972656e+00,1.610970611572265625e+02
5.000000000000000000e+00,1.628888854980468750e+02
5.039999961853027344e+00,1.647719421386718750e+02
5.079999923706054688e+00,1.665289154052734375e+02
5.119999885559082031e+00,1.682834625244140625e+02
5.159999847412109375e+00,1.700361175537109375e+02
5.199999809265136719e+00,1.717846984863281250e+02
5.239999771118164062e+00,1.735307312011718750e+02
5.279999732971191406e+00,1.752782440185546875e+02
5.320000171661376953e+00,1.770277709960937500e+02
5.360000133514404297e+00,1.787789611816406250e+02
5.400000095367431641e+00,1.805289001464843750e+02
5.440000057220458984e+00,1.822760314941406250e+02
5.480000019073486328e+00,1.840239105224609375e+02
5.519999980926513672e+00,1.857729187011718750e+02
5.559999942779541016e+00,1.873941955566406250e+02
5.599999904632568359e+00,1.888812561035156250e+02
5.639999866485595703e+00,1.903654479980468750e+02
5.679999828338623047e+00,1.918475646972656250e+02
5.719999790191650391e+00,1.933282012939453125e+02
5.759999752044677734e+00,1.948066864013671875e+02
5.799999713897705078e+00,1.962681579589843750e+02
5.839999675750732422e+00,1.977135925292968750e+02
5.879999637603759766e+00,1.991570281982421875e+02
5.919999599456787109e+00,2.005985565185546875e+02
5.960000038146972656e+00,2.020379028320312500e+02
6.000000000000000000e+00,2.033554992675781250e+02
6.039999961853027344e+00,2.045486450195312500e+02
6.079999923706054688e+00,2.057374877929687500e+02
6.119999885559082031e+00,2.068310241699218750e+02
6.159999847412109375e+00,2.078531799316406250e+02
6.199999809265136719e+00,2.088783874511718750e+02
6.239999771118164062e+00,2.099068145751953125e+02
6.279999732971191406e+00,2.109306945800781250e+02
6.319999694824218750e+00,2.119339294433593750e+02
6.359999656677246094e+00,2.129323120117187500e+02
6.399999618530273438e+00,2.139222564697265625e+02
6.439999580383300781e+00,2.149039611816406250e+02
6.480000019073486328e+00,2.158810882568359375e+02
6.519999980926513672e+00,2.168623962402343750e+02
6.559999942779541016e+00,2.178394927978515625e+02
6.599999904632568359e+00,2.188092041015625000e+02
6.639999866485595703e+00,2.197714843750000000e+02
6.679999828338623047e+00,2.207299957275390625e+02
6.719999790191650391e+00,2.216392059326171875e+02
6.759999752044677734e+00,2.224494323730468750e+02
6.799999713897705078e+00,2.232477569580078125e+02
6.839999675750732422e+00,2.240345001220703125e+02
6.879999637603759766e+00,2.248171691894531250e+02
6.919999599456787109e+00,2.255957641601562500e+02
6.959999561309814453e+00,2.263703308105468750e+02
7.000000000000000000e+00,2.270731048583984375e+02
7.039999961853027344e+00,2.277033843994140625e+02
7.079999923706054688e+00,2.283304595947265625e+02
7.119999885559082031e+00,2.277506103515625000e+02
7.159999847412109375e+00,2.283673248291015625e+02
7.199999809265136719e+00,2.290042419433593750e+02
7.239999771118164062e+00,2.296618804931640625e+02
7.279999732971191406e+00,2.303158264160156250e+02
7.319999694824218750e+00,2.309484252929687500e+02
7.359999656677246094e+00,2.315770874023437500e+02
7.399999618530273438e+00,2.321943664550781250e+02
7.439999580383300781e+00,2.328000946044921875e+02
7.479999542236328125e+00,2.334026489257812500e+02
7.519999980926513672e+00,2.340102691650390625e+02
7.559999942779541016e+00,2.346145477294921875e+02
7.599999904632568359e+00,2.352109832763671875e+02
7.639999866485595703e+00,2.357994689941406250e+02
7.679999828338623047e+00,2.363847351074218750e+02
7.719999790191650391e+00,2.369671173095703125e+02
7.759999752044677734e+00,2.375468902587890625e+02
7.799999713897705078e+00,2.381203613281250000e+02
7.839999675750732422e+00,2.386872100830078125e+02
7.879999637603759766e+00,2.392513580322265625e+02
7.919999599456787109e+00,2.398127136230468750e+02
7.959999561309814453e+00,2.403712158203125000e+02
7.999999523162841797e+00,2.409276428222656250e+02
8.039999961853027344e+00,2.414820098876953125e+02
8.079999923706054688e+00,2.420339965820312500e+02
8.119999885559082031e+00,2.425836639404296875e+02
8.159999847412109375e+00,2.430652313232421875e+02
8.199999809265136719e+00,2.435393981933593750e+02
8.239999771118164062e+00,2.439897308349609375e+02
8.279999732971191406e+00,2.443882141113281250e+02
8.319999694824218750e+00,2.447841186523437500e+02
8.359999656677246094e+00,2.451775817871093750e+02
8.399999618530273438e+00,2.455627593994140625e+02
8.439999580383300781e+00,2.459400939941406250e+02
8.479999542236328125e+00,2.463148193359375000e+02
8.520000457763671875e+00,2.466968383789062500e+02
8.560000419616699219e+00,2.470764617919921875e+02
8.600000381469726562e+00,2.474461822509765625e+02
8.640000343322753906e+00,2.478058013916015625e+02
8.680000305175781250e+00,2.481631164550781250e+02
8.720000267028808594e+00,2.484993896484375000e+02
8.760000228881835938e+00,2.488336486816406250e+02
8.800000190734863281e+00,2.491572113037109375e+02
8.840000152587890625e+00,2.494701385498046875e+02
8.880000114440917969e+00,2.497810363769531250e+02
8.920000076293945312e+00,2.501092834472656250e+02
8.960000038146972656e+00,2.503991241455078125e+02
9.000000000000000000e+00,2.506560516357421875e+02
9.039999961853027344e+00,2.509001617431640625e+02
9.079999923706054688e+00,2.511421661376953125e+02
9.119999885559082031e+00,2.513631744384765625e+02
9.159999847412109375e+00,2.515354614257812500e+02
9.199999809265136719e+00,2.516902160644531250e+02
9.239999771118164062e+00,2.518274078369140625e+02
9.279999732971191406e+00,2.519624938964843750e+02
9.319999694824218750e+00,2.520862579345703125e+02
9.359999656677246094e+00,2.522078857421875000e+02
9.399999618530273438e+00,2.523018646240234375e+02
9.439999580383300781e+00,2.523684082031250000e+02
9.479999542236328125e+00,2.524329223632812500e+02
9.519999504089355469e+00,2.525145568847656250e+02
9.560000419616699219e+00,2.525944519042968750e+02
9.600000381469726562e+00,2.525452728271484375e+02
9.640000343322753906e+00,2.524069824218750000e+02
9.680000305175781250e+00,2.523875274658203125e+02
9.720000267028808594e+00,2.523566894531250000e+02
9.760000228881835938e+00,2.523238220214843750e+02
9.800000190734863281e+00,2.520519866943359375e+02
9.840000152587890625e+00,2.515327758789062500e+02
9.880000114440917969e+00,2.509867858886718750e+02
9.920000076293945312e+00,2.504389038085937500e+02
9.960000038146972656e+00,2.504853973388671875e+02
1.000000000000000000e+01,2.482493438720703125e+02
1.003999996185302734e+01,2.432720031738281250e+02
1.007999992370605469e+01,2.382478027343750000e+02
1.011999988555908203e+01,2.331770019531250000e+02
1.015999984741210938e+01,2.280600585937500000e+02
1.019999980926513672e+01,2.221604614257812500e+02
1.023999977111816406e+01,2.223078460693359375e+02
1.027999973297119141e+01,2.224466857910156250e+02
1.032000064849853516e+01,2.225772705078125000e+02
1.036000061035156250e+01,2.226998291015625000e+02
1.040000057220458984e+01,2.236588897705078125e+02
1.044000053405761719e+01,2.251391143798828125e+02
1.048000049591064453e+01,2.256387329101562500e+02
1.052000045776367188e+01,2.261350555419921875e+02
1.056000041961669922e+01,2.266278839111328125e+02
1.060000038146972656e+01,2.266794128417968750e+02
1.064000034332275391e+01,2.262915954589843750e+02
1.068000030517578125e+01,2.259025115966796875e+02
1.072000026702880859e+01,2.255119934082031250e+02
1.076000022888183594e+01,2.251203765869140625e+02
1.080000019073486328e+01,2.246290283203125000e+02
1.084000015258789062e+01,2.240225219726562500e+02
1.088000011444091797e+01,2.234079589843750000e+02
1.092000007629394531e+01,2.227930297851562500e+02
1.096000003814697266e+01,2.221776580810546875e+02
1.100000000000000000e+01,2.214643249511718750e+02
1.103999996185302734e+01,2.206530914306640625e+02
1.107999992370605469e+01,2.198421936035156250e+02
1.111999988555908203e+01,2.198236083984375000e+02
1.115999984741210938e+01,2.198026733398437500e+02
1.119999980926513672e+01,2.193636627197265625e+02
1.123999977111816406e+01,2.185037384033203125e+02
1.127999973297119141e+01,2.176379699707031250e+02
1.131999969482421875e+01,2.167659606933593750e+02
1.136000061035156250e+01,2.158883972167968750e+02
1.140000057220458984e+01,2.139196166992187500e+02
1.144000053405761719e+01,2.108529052734375000e+02
1.148000049591064453e+01,2.077707977294921875e+02
1.152000045776367188e+01,2.044748687744140625e+02
1.156000041961669922e+01,1.954785156250000000e+02
1.160000038146972656e+01,1.929585418701171875e+02
1.164000034332275391e+01,1.922295989990234375e+02
1.168000030517578125e+01,1.914948883056640625e+02
1.172000026702880859e+01,1.907513580322265625e+02
1.176000022888183594e+01,1.899996643066406250e+02
1.180000019073486328e+01,1.891922149658203125e+02
1.184000015258789062e+01,1.883327789306640625e+02
1.188000011444091797e+01,1.874725189208984375e+02
1.192000007629394531e+01,1.866044769287109375e+02
1.196000003814697266e+01,1.857297515869140625e+02
1.200000000000000000e+01,1.847340698242187500e+02
1.203999996185302734e+01,1.836179962158203125e+02
1.207999992370605469e+01,1.828042297363281250e+02
1.211999988555908203e+01,1.828758697509765625e+02
1.215999984741210938e+01,1.829469299316406250e+02
1.219999980926513672e+01,1.829771423339843750e+02
1.223999977111816406e+01,1.829661865234375000e+02
1.227999973297119141e+01,1.829542846679687500e+02
1.231999969482421875e+01,1.829414215087890625e+02
1.236000061035156250e+01,1.829276580810546875e+02
1.240000057220458984e+01,1.828331146240234375e+02
1.244000053405761719e+01,1.826583557128906250e+02
1.248000049591064453e+01,1.824825439453125000e+02
1.252000045776367188e+01,1.823059539794921875e+02
1.256000041961669922e+01,1.821287231445312500e+02
1.260000038146972656e+01,1.819031829833984375e+02
1.264000034332275391e+01,1.816293334960937500e+02
1.268000030517578125e+01,1.813550415039062500e+02
1.272000026702880859e+01,1.810798645019531250e+02
1.276000022888183594e+01,1.808039703369140625e+02
1.280000019073486328e+01,1.804990844726562500e+02
1.284000015258789062e+01,1.801650848388671875e+02
1.288000011444091797e+01,1.798311462402343750e+02
1.292000007629394531e+01,1.794967346191406250e+02
1.296000003814697266e+01,1.791616821289062500e+02
1.300000000000000000e+01,1.786632690429687500e+02
1.303999996185302734e+01,1.780017395019531250e+02
1.307999992370605469e+01,1.773402557373046875e+02
1.311999988555908203e+01,1.766719818115234375e+02
1.315999984741210938e+01,1.760014648437500000e+02
1.319999980926513672e+01,1.752400054931640625e+02
1.323999977111816406e+01,1.743884582519531250e+02
1.327999973297119141e+01,1.732796020507812500e+02
1.331999969482421875e+01,1.705576477050781250e+02
1.335999965667724609e+01,1.694662628173828125e+02
1.340000057220458984e+01,1.686916961669921875e+02
1.344000053405761719e+01,1.681854858398437500e+02
1.348000049591064453e+01,1.676789703369140625e+02
1.352000045776367188e+01,1.671720275878906250e+02
1.356000041961669922e+01,1.666650543212890625e+02
1.360000038146972656e+01,1.661215057373046875e+02
1.364000034332275391e+01,1.655416564941406250e+02
1.368000030517578125e+01,1.649612121582031250e+02
1.372000026702880859e+01,1.643807830810546875e+02
1.376000022888183594e+01,1.638001098632812500e+02
1.380000019073486328e+01,1.631716003417968750e+02
1.384000015258789062e+01,1.619205322265625000e+02
1.388000011444091797e+01,1.612320709228515625e+02
1.392000007629394531e+01,1.608307342529296875e+02
1.396000003814697266e+01,1.604303894042968750e+02
1.400000000000000000e+01,1.600716705322265625e+02
1.403999996185302734e+01,1.597547607421875000e+02
1.407999992370605469e+01,1.594375000000000000e+02
1.411999988555908203e+01,1.591196289062500000e+02
1.415999984741210938e+01,1.588013610839843750e+02
1.419999980926513672e+01,1.584832153320312500e+02
1.423999977111816406e+01,1.581650390625000000e+02
1.427999973297119141e+01,1.578464355468750000e+02
1.431999969482421875e+01,1.575277709960937500e+02
1.435999965667724609e+01,1.572088317871093750e+02
1.439999961853027344e+01,1.568714141845703125e+02
1.444000053405761719e+01,1.565106811523437500e+02
1.448000049591064453e+01,1.561500091552734375e+02
1.452000045776367188e+01,1.557893218994140625e+02
1.456000041961669922e+01,1.554284667968750000e+02
1.460000038146972656e+01,1.550599365234375000e+02
1.464000034332275391e+01,1.546837921142578125e+02
1.468000030517578125e+01,1.543076171875000000e+02
1.472000026702880859e+01,1.539314117431640625e+02
1.476000022888183594e+01,1.535551605224609375e+02
1.480000019073486328e+01,1.531733703613281250e+02
1.484000015258789062e+01,1.527859802246093750e+02
1.488000011444091797e+01,1.523982543945312500e+02
1.492000007629394531e+01,1.520104370117187500e+02
1.496000003814697266e+01,1.516225891113281250e+02
1.500000000000000000e+01,1.512292175292968750e+02
1.503999996185302734e+01,1.508303375244140625e+02
1.507999992370605469e+01,1.504313659667968750e+02
1.511999988555908203e+01,1.500322875976562500e+02
1.515999984741210938e+01,1.496332855224609375e+02
1.519999980926513672e+01,1.492276000976562500e+02
1.523999977111816406e+01,1.488152160644531250e+02
1.527999973297119141e+01,1.484028167724609375e+02
1.531999969482421875e+01,1.479905090332031250e+02
1.535999965667724609e+01,1.475780792236328125e+02
1.539999961853027344e+01,1.471634063720703125e+02
1.544000053405761719e+01,1.467463684082031250e+02
1.548000049591064453e+01,1.463293609619140625e+02
1.552000045776367188e+01,1.459125976562500000e+02
1.556000041961669922e+01,1.454957885742187500e+02
1.560000038146972656e+01,1.450836181640625000e+02
1.564000034332275391e+01,1.446760253906250000e+02
1.568000030517578125e+01,1.442683105468750000e+02
1.572000026702880859e+01,1.439506072998046875e+02
1.576000022888183594e+01,1.436337280273437500e+02
1.580000019073486328e+01,1.433076934814453125e+02
1.584000015258789062e+01,1.429723968505859375e+02
1.588000011444091797e+01,1.426338348388671875e+02
1.592000007629394531e+01,1.422947387695312500e+02
1.596000003814697266e+01,1.419553527832031250e+02
1.600000000000000000e+01,1.416151733398437500e+02
1.603999900817871094e+01,1.412742919921875000e+02
1.607999992370605469e+01,1.409329986572265625e+02
1.611999893188476562e+01,1.405913696289062500e+02
1.615999984741210938e+01,1.402492828369140625e+02
1.619999885559082031e+01,1.399069061279296875e+02
1.623999977111816406e+01,1.395640716552734375e+02
1.627999877929687500e+01,1.392209625244140625e+02
1.631999969482421875e+01,1.388773803710937500e+02
1.635999870300292969e+01,1.385335083007812500e+02
1.639999961853027344e+01,1.381892547607421875e+02
1.643999862670898438e+01,1.378447113037109375e+02
1.647999954223632812e+01,1.374997711181640625e+02
1.652000045776367188e+01,1.371617126464843750e+02
1.655999946594238281e+01,1.368233795166015625e+02
1.660000038146972656e+01,1.364846496582031250e+02
1.663999938964843750e+01,1.361456298828125000e+02
1.668000030517578125e+01,1.358062896728515625e+02
1.671999931335449219e+01,1.354689788818359375e+02
1.676000022888183594e+01,1.351312561035156250e+02
1.679999923706054688e+01,1.347931671142578125e+02
1.684000015258789062e+01,1.344548187255859375e+02
1.687999916076660156e+01,1.341160430908203125e+02
1.692000007629394531e+01,1.337725067138671875e+02
1.695999908447265625e+01,1.334286499023437500e+02
1.700000000000000000e+01,1.330970458984375000e+02
1.703999900817871094e+01,1.327776184082031250e+02
1.707999992370605469e+01,1.324579010009765625e+02
1.711999893188476562e+01,1.321425781250000000e+02
1.715999984741210938e+01,1.318269500732421875e+02
1.719999885559082031e+01,1.315111541748046875e+02
1.723999977111816406e+01,1.311951904296875000e+02
1.727999877929687500e+01,1.308862609863281250e+02
1.731999969482421875e+01,1.305771789550781250e+02
1.735999870300292969e+01,1.302679443359375000e+02
1.739999961853027344e+01,1.299584350585937500e+02
1.743999862670898438e+01,1.296481323242187500e+02
1.747999954223632812e+01,1.293361206054687500e+02
