# Start of Energy Bin (keV), Effective Area (cm^2)
1.600000023841857910e+00,9.063919782638549805e-01
1.639999985694885254e+00,1.256528258323669434e+00
1.680000066757202148e+00,1.735849380493164062e+00
1.720000028610229492e+00,2.390175104141235352e+00
1.759999990463256836e+00,3.233204603195190430e+00
1.799999952316284180e+00,4.074109077453613281e+00
1.840000033378601074e+00,2.259624958038330078e+00
1.879999995231628418e+00,2.879069328308105469e+00
1.920000076293945312e+00,3.747480154037475586e+00
1.960000038146972656e+00,4.714905261993408203e+00
2.000000000000000000e+00,5.822663307189941406e+00
2.039999961853027344e+00,7.125117778778076172e+00
2.079999923706054688e+00,8.707222938537597656e+00
2.119999885559082031e+00,7.922968387603759766e+00
2.160000085830688477e+00,9.193227767944335938e+00
2.200000047683715820e+00,9.585258483886718750e+00
2.240000009536743164e+00,1.096942329406738281e+01
2.279999971389770508e+00,1.258868503570556641e+01
2.319999933242797852e+00,1.457881927490234375e+01
2.360000133514404297e+00,1.650922584533691406e+01
2.400000095367431641e+00,1.835860443115234375e+01
2.440000057220458984e+00,2.045277404785156250e+01
2.480000019073486328e+00,2.289966201782226562e+01
2.519999980926513672e+00,2.584555053710937500e+01
2.559999942779541016e+00,2.908234024047851562e+01
2.599999904632568359e+00,3.201342773437500000e+01
2.639999866485595703e+00,3.261824035644531250e+01
2.679999828338623047e+00,3.555414581298828125e+01
2.720000028610229492e+00,3.871947479248046875e+01
2.759999990463256836e+00,4.214343261718750000e+01
2.799999952316284180e+00,4.583137130737304688e+01
2.840000152587890625e+00,4.964085388183593750e+01
2.880000114440917969e+00,5.292129135131835938e+01
2.920000076293945312e+00,5.634910964965820312e+01
2.960000038146972656e+00,5.997987747192382812e+01
3.000000000000000000e+00,6.395507812500000000e+01
3.039999961853027344e+00,6.635765075683593750e+01
3.079999923706054688e+00,7.048439025878906250e+01
3.119999885559082031e+00,7.477806091308593750e+01
3.159999847412109375e+00,7.838201141357421875e+01
3.199999809265136719e+00,8.211240386962890625e+01
3.240000009536743164e+00,8.597521972656250000e+01
3.279999971389770508e+00,8.878227233886718750e+01
3.319999933242797852e+00,9.337429809570312500e+01
3.360000133514404297e+00,9.816889190673828125e+01
3.400000095367431641e+00,1.031600952148437500e+02
3.440000057220458984e+00,1.071852722167968750e+02
3.480000019073486328e+00,1.101822814941406250e+02
3.519999980926513672e+00,1.069672088623046875e+02
3.559999942779541016e+00,1.099522933959960938e+02
3.599999904632568359e+00,1.130430755615234375e+02
3.639999866485595703e+00,1.161775817871093750e+02
3.679999828338623047e+00,1.193610992431640625e+02
3.719999790191650391e+00,1.193103942871093750e+02
3.759999752044677734e+00,1.225963363647460938e+02
3.800000190734863281e+00,1.254758987426757812e+02
3.840000152587890625e+00,1.280706787109375000e+02
3.880000114440917969e+00,1.306753845214843750e+02
3.920000076293945312e+00,1.339043426513671875e+02
3.960000038146972656e+00,1.373745574951171875e+02
4.000000000000000000e+00,1.390911254882812500e+02
4.039999961853027344e+00,1.424907226562500000e+02
4.079999923706054688e+00,1.459325714111328125e+02
4.119999885559082031e+00,1.493999328613281250e+02
4.159999847412109375e+00,1.528690643310546875e+02
4.199999809265136719e+00,1.558375854492187500e+02
4.239999771118164062e+00,1.588232727050781250e+02
4.279999732971191406e+00,1.618339233398437500e+02
4.320000171661376953e+00,1.588144378662109375e+02
4.360000133514404297e+00,1.596478271484375000e+02
4.400000095367431641e+00,1.622753448486328125e+02
4.440000057220458984e+00,1.649193725585937500e+02
4.480000019073486328e+00,1.675934143066406250e+02
4.519999980926513672e+00,1.702860260009765625e+02
4.559999942779541016e+00,1.729781341552734375e+02
4.599999904632568359e+00,1.711153717041015625e+02
4.639999866485595703e+00,1.735317840576171875e+02
4.679999828338623047e+00,1.757369079589843750e+02
4.719999790191650391e+00,1.779436645507812500e+02
4.759999752044677734e+00,1.801525268554687500e+02
4.799999713897705078e+00,1.823629302978515625e+02
4.840000152587890625e+00,1.845643615722656250e+02
4.880000114440917969e+00,1.867630920410156250e+02
4.920000076293945312e+00,1.868750305175781250e+02
4.960000038146972656e+00,1.890735015869140625e+02
5.000000000000000000e+00,1.912229309082031250e+02
5.039999961853027344e+00,1.934812011718750000e+02
5.079999923706054688e+00,1.955918731689453125e+02
5.119999885559082031e+00,1.977008819580078125e+02
5.159999847412109375e+00,1.998056640625000000e+02
5.199999809265136719e+00,2.019034576416015625e+02
5.239999771118164062e+00,2.039961242675781250e+02
5.279999732971191406e+00,2.060893554687500000e+02
5.320000171661376953e+00,2.081799163818359375e+02
5.360000133514404297e+00,2.102710113525390625e+02
5.400000095367431641e+00,2.123585205078125000e+02
5.440000057220458984e+00,2.144404144287109375e+02
5.480000019073486328e+00,2.165212097167968750e+02
5.519999980926513672e+00,2.185977630615234375e+02
5.559999942779541016e+00,2.205222625732421875e+02
5.599999904632568359e+00,2.222862091064453125e+02
5.639999866485595703e+00,2.240441741943359375e+02
5.679999828338623047e+00,2.257979278564453125e+02
5.719999790191650391e+00,2.275509643554687500e+02
5.759999752044677734e+00,2.292999114990234375e+02
5.799999713897705078e+00,2.310260925292968750e+02
5.839999675750732422e+00,2.327307434082031250e+02
5.879999637603759766e+00,2.344310913085937500e+02
5.919999599456787109e+00,2.361283416748046875e+02
5.960000038146972656e+00,2.378211975097656250e+02
6.000000000000000000e+00,2.393786315917968750e+02
6.039999961853027344e+00,2.407976074218750000e+02
6.079999923706054688e+00,2.422100067138671875e+02
6.119999885559082031e+00,2.434986114501953125e+02
6.159999847412109375e+00,2.447013854980468750e+02
6.199999809265136719e+00,2.459059143066406250e+02
6.239999771118164062e+00,2.471127624511718750e+02
6.279999732971191406e+00,2.483126220703125000e+02
6.319999694824218750e+00,2.495061035156250000e+02
6.359999656677246094e+00,2.506925354003906250e+02
6.399999618530273438e+00,2.518668212890625000e+02
6.439999580383300781e+00,2.530291748046875000e+02
6.480000019073486328e+00,2.541850128173828125e+02
6.519999980926513672e+00,2.553353576660156250e+02
6.559999942779541016e+00,2.564795532226562500e+02
6.599999904632568359e+00,2.576126098632812500e+02
6.639999866485595703e+00,2.587346191406250000e+02
6.679999828338623047e+00,2.598508605957031250e+02
6.719999790191650391e+00,2.609220886230468750e+02
6.759999752044677734e+00,2.618755493164062500e+02
6.799999713897705078e+00,2.628122253417968750e+02
6.839999675750732422e+00,2.637326049804687500e+02
6.879999637603759766e+00,2.646470031738281250e+02
6.919999599456787109e+00,2.655243835449218750e+02
6.959999561309814453e+00,2.663957519531250000e+02
7.000000000000000000e+00,2.672032165527343750e+02
7.039999961853027344e+00,2.679461975097656250e+02
7.079999923706054688e+00,2.686845397949218750e+02
7.119999885559082031e+00,2.680085449218750000e+02
7.159999847412109375e+00,2.687396240234375000e+02
7.199999809265136719e+00,2.694788513183593750e+02
7.239999771118164062e+00,2.702272644042968750e+02
7.279999732971191406e+00,2.709702453613281250e+02
7.319999694824218750e+00,2.717068176269531250e+02
7.359999656677246094e+00,2.724380493164062500e+02
7.399999618530273438e+00,2.731537170410156250e+02
7.439999580383300781e+00,2.738538513183593750e+02
7.479999542236328125e+00,2.745492248535156250e+02
7.519999980926513672e+00,2.752552490234375000e+02
7.559999942779541016e+00,2.759565124511718750e+02
7.599999904632568359e+00,2.766443786621093750e+02
7.639999866485595703e+00,2.773186035156250000e+02
7.679999828338623047e+00,2.779884948730468750e+02
7.719999790191650391e+00,2.786381530761718750e+02
7.759999752044677734e+00,2.792839660644531250e+02
7.799999713897705078e+00,2.799170227050781250e+02
7.839999675750732422e+00,2.805367431640625000e+02
7.879999637603759766e+00,2.811522827148437500e+02
7.919999599456787109e+00,2.817639770507812500e+02
7.959999561309814453e+00,2.823714294433593750e+02
7.999999523162841797e+00,2.829425048828125000e+02
8.039999961853027344e+00,2.834771728515625000e+02
8.079999923706054688e+00,2.840080566406250000e+02
8.119999885559082031e+00,2.845351257324218750e+02
8.159999847412109375e+00,2.849816284179687500e+02
8.199999809265136719e+00,2.854065856933593750e+02
8.239999771118164062e+00,2.858352966308593750e+02
8.279999732971191406e+00,2.863352661132812500e+02
8.319999694824218750e+00,2.868316955566406250e+02
8.359999656677246094e+00,2.873247070312500000e+02
8.399999618530273438e+00,2.877874755859375000e+02
8.439999580383300781e+00,2.882206115722656250e+02
8.479999542236328125e+00,2.886502990722656250e+02
8.520000457763671875e+00,2.890765075683593750e+02
8.560000419616699219e+00,2.894993286132812500e+02
8.600000381469726562e+00,2.898764953613281250e+02
8.640000343322753906e+00,2.902075805664062500e+02
8.680000305175781250e+00,2.905352478027343750e+02
8.720000267028808594e+00,2.908596191406250000e+02
8.760000228881835938e+00,2.911807556152343750e+02
8.800000190734863281e+00,2.914442138671875000e+02
8.840000152587890625e+00,2.916498718261718750e+02
8.880000114440917969e+00,2.918518676757812500e+02
8.920000076293945312e+00,2.920554199218750000e+02
8.960000038146972656e+00,2.922129821777343750e+02
9.000000000000000000e+00,2.922843322753906250e+02
9.039999961853027344e+00,2.922929992675781250e+02
9.079999923706054688e+00,2.922979736328125000e+02
9.119999885559082031e+00,2.923314208984375000e+02
9.159999847412109375e+00,2.924535522460937500e+02
9.199999809265136719e+00,2.925117492675781250e+02
9.239999771118164062e+00,2.925057373046875000e+02
9.279999732971191406e+00,2.924959106445312500e+02
9.319999694824218750e+00,2.924608764648437500e+02
9.359999656677246094e+00,2.924219665527343750e+02
9.399999618530273438e+00,2.923124389648437500e+02
9.439999580383300781e+00,2.921323547363281250e+02
9.479999542236328125e+00,2.919483337402343750e+02
9.519999504089355469e+00,2.917862243652343750e+02
9.560000419616699219e+00,2.916206359863281250e+02
9.600000381469726562e+00,2.912414855957031250e+02
9.640000343322753906e+00,2.907089843750000000e+02
9.680000305175781250e+00,2.903536071777343750e+02
9.720000267028808594e+00,2.899737548828125000e+02
9.760000228881835938e+00,2.895902099609375000e+02
9.800000190734863281e+00,2.887944335937500000e+02
9.840000152587890625e+00,2.875779113769531250e+02
9.880000114440917969e+00,2.863303833007812500e+02
9.920000076293945312e+00,2.851321716308593750e+02
9.960000038146972656e+00,2.843351135253906250e+02
1.000000000000000000e+01,2.808049011230468750e+02
1.003999996185302734e+01,2.742470092773437500e+02
1.007999992370605469e+01,2.676750793457031250e+02
1.011999988555908203e+01,2.610568237304687500e+02
1.015999984741210938e+01,2.544278869628906250e+02
1.019999980926513672e+01,2.471428527832031250e+02
1.023999977111816406e+01,2.473327941894531250e+02
1.027999973297119141e+01,2.475142211914062500e+02
1.032000064849853516e+01,2.476875152587890625e+02
1.036000061035156250e+01,2.478527832031250000e+02
1.040000057220458984e+01,2.489277801513671875e+02
1.044000053405761719e+01,2.505580444335937500e+02
1.048000049591064453e+01,2.510859069824218750e+02
1.052000045776367188e+01,2.515942840576171875e+02
1.056000041961669922e+01,2.520976257324218750e+02
1.060000038146972656e+01,2.520128326416015625e+02
1.064000034332275391e+01,2.513433837890625000e+02
1.068000030517578125e+01,2.506724090576171875e+02
1.072000026702880859e+01,2.500004882812500000e+02
1.076000022888183594e+01,2.493274078369140625e+02
1.080000019073486328e+01,2.485416107177734375e+02
1.084000015258789062e+01,2.476265106201171875e+02
1.088000011444091797e+01,2.467030334472656250e+02
1.092000007629394531e+01,2.457952117919921875e+02
1.096000003814697266e+01,2.448874969482421875e+02
1.100000000000000000e+01,2.438744201660156250e+02
1.103999996185302734e+01,2.427564392089843750e+02
1.107999992370605469e+01,2.416397399902343750e+02
1.111999988555908203e+01,2.414597625732421875e+02
1.115999984741210938e+01,2.412775421142578125e+02
1.119999980926513672e+01,2.405935668945312500e+02
1.123999977111816406e+01,2.394064025878906250e+02
1.127999973297119141e+01,2.382150726318359375e+02
1.131999969482421875e+01,2.370320739746093750e+02
1.136000061035156250e+01,2.358450012207031250e+02
1.140000057220458984e+01,2.334767150878906250e+02
1.144000053405761719e+01,2.299228973388671875e+02
1.148000049591064453e+01,2.263586730957031250e+02
1.152000045776367188e+01,2.225920257568359375e+02
1.156000041961669922e+01,2.128045959472656250e+02
1.160000038146972656e+01,2.099932098388671875e+02
1.164000034332275391e+01,2.091799926757812500e+02
1.168000030517578125e+01,2.083609619140625000e+02
1.172000026702880859e+01,2.075085449218750000e+02
1.176000022888183594e+01,2.066477355957031250e+02
1.180000019073486328e+01,2.057250976562500000e+02
1.184000015258789062e+01,2.047444305419921875e+02
1.188000011444091797e+01,2.037633666992187500e+02
1.192000007629394531e+01,2.027848510742187500e+02
1.196000003814697266e+01,2.017992858886718750e+02
1.200000000000000000e+01,2.006653900146484375e+02
1.203999996185302734e+01,1.993839416503906250e+02
1.207999992370605469e+01,1.984757690429687500e+02
1.211999988555908203e+01,1.986455993652343750e+02
1.215999984741210938e+01,1.988143615722656250e+02
1.219999980926513672e+01,1.989158935546875000e+02
1.223999977111816406e+01,1.989499206542968750e+02
1.227999973297119141e+01,1.989829864501953125e+02
1.231999969482421875e+01,1.990157470703125000e+02
1.236000061035156250e+01,1.990476989746093750e+02
1.240000057220458984e+01,1.989687652587890625e+02
1.244000053405761719e+01,1.987796020507812500e+02
1.248000049591064453e+01,1.985894165039062500e+02
1.252000045776367188e+01,1.983963012695312500e+02
1.256000041961669922e+01,1.982025756835937500e+02
1.260000038146972656e+01,1.979412994384765625e+02
1.264000034332275391e+01,1.976127166748046875e+02
1.268000030517578125e+01,1.972836608886718750e+02
1.272000026702880859e+01,1.969659576416015625e+02
1.276000022888183594e+01,1.966474914550781250e+02
1.280000019073486328e+01,1.962829589843750000e+02
1.284000015258789062e+01,1.958724670410156250e+02
1.288000011444091797e+01,1.954621124267578125e+02
1.292000007629394531e+01,1.950408935546875000e+02
1.296000003814697266e+01,1.946192932128906250e+02
1.300000000000000000e+01,1.939892272949218750e+02
1.303999996185302734e+01,1.931513519287109375e+02
1.307999992370605469e+01,1.923144226074218750e+02
1.311999988555908203e+01,1.914698638916015625e+02
1.315999984741210938e+01,1.906237182617187500e+02
1.319999980926513672e+01,1.896578979492187500e+02
1.323999977111816406e+01,1.885736846923828125e+02
1.327999973297119141e+01,1.873497314453125000e+02
1.331999969482421875e+01,1.844259033203125000e+02
1.335999965667724609e+01,1.832732391357421875e+02
1.340000057220458984e+01,1.824552307128906250e+02
1.344000053405761719e+01,1.819035034179687500e+02
1.348000049591064453e+01,1.813515319824218750e+02
1.352000045776367188e+01,1.808194885253906250e+02
1.356000041961669922e+01,1.802873229980468750e+02
1.360000038146972656e+01,1.796933135986328125e+02
1.364000034332275391e+01,1.790380096435546875e+02
1.368000030517578125e+01,1.783822174072265625e+02
1.372000026702880859e+01,1.777161865234375000e+02
1.376000022888183594e+01,1.770501556396484375e+02
1.380000019073486328e+01,1.763304138183593750e+02
1.384000015258789062e+01,1.749519805908203125e+02
1.388000011444091797e+01,1.742089843750000000e+02
1.392000007629394531e+01,1.737833709716796875e+02
1.396000003814697266e+01,1.733586120605468750e+02
1.400000000000000000e+01,1.729736480712890625e+02
1.403999996185302734e+01,1.726284179687500000e+02
1.407999992370605469e+01,1.722828063964843750e+02
1.411999988555908203e+01,1.719363708496093750e+02
1.415999984741210938e+01,1.715896148681640625e+02
1.419999980926513672e+01,1.712393188476562500e+02
1.423999977111816406e+01,1.708854980468750000e+02
1.427999973297119141e+01,1.705313720703125000e+02
1.431999969482421875e+01,1.701769714355468750e+02
1.435999965667724609e+01,1.698223724365234375e+02
1.439999961853027344e+01,1.694486236572265625e+02
1.444000053405761719e+01,1.690505676269531250e+02
1.448000049591064453e+01,1.686526641845703125e+02
1.452000045776367188e+01,1.682546081542968750e+02
1.456000041961669922e+01,1.678563995361328125e+02
1.460000038146972656e+01,1.674537658691406250e+02
1.464000034332275391e+01,1.670465698242187500e+02
1.468000030517578125e+01,1.666393737792968750e+02
1.472000026702880859e+01,1.662420806884765625e+02
1.476000022888183594e+01,1.658447113037109375e+02
1.480000019073486328e+01,1.654445953369140625e+02
1.484000015258789062e+01,1.650416259765625000e+02
1.488000011444091797e+01,1.646382446289062500e+02
1.492000007629394531e+01,1.642157440185546875e+02
1.496000003814697266e+01,1.637932281494140625e+02
1.500000000000000000e+01,1.633699645996093750e+02
1.503999996185302734e+01,1.629459075927734375e+02
1.507999992370605469e+01,1.625217742919921875e+02
1.511999988555908203e+01,1.621065216064453125e+02
1.515999984741210938e+01,1.616912841796875000e+02
1.519999980926513672e+01,1.612713623046875000e+02
1.523999977111816406e+01,1.608467864990234375e+02
1.527999973297119141e+01,1.604221191406250000e+02
1.531999969482421875e+01,1.599977569580078125e+02
1.535999965667724609e+01,1.595733642578125000e+02
1.539999961853027344e+01,1.591493988037109375e+02
1.544000053405761719e+01,1.587259063720703125e+02
1.548000049591064453e+01,1.583023376464843750e+02
1.552000045776367188e+01,1.578786315917968750e+02
1.556000041961669922e+01,1.574547424316406250e+02
1.560000038146972656e+01,1.570400238037109375e+02
1.564000034332275391e+01,1.566343994140625000e+02
1.568000030517578125e+01,1.562285919189453125e+02
1.572000026702880859e+01,1.558757324218750000e+02
1.576000022888183594e+01,1.555231018066406250e+02
1.580000019073486328e+01,1.551619110107421875e+02
1.584000015258789062e+01,1.547920532226562500e+02
1.588000011444091797e+01,1.544187469482421875e+02
1.592000007629394531e+01,1.540377960205078125e+02
1.596000003814697266e+01,1.536564636230468750e+02
1.600000000000000000e+01,1.532758178710937500e+02
1.603999900817871094e+01,1.528958587646484375e+02
1.607999992370605469e+01,1.525155181884765625e+02
1.611999893188476562e+01,1.521329193115234375e+02
1.615999984741210938e+01,1.517499237060546875e+02
1.619999885559082031e+01,1.513665924072265625e+02
1.623999977111816406e+01,1.509828643798828125e+02
1.627999877929687500e+01,1.505988464355468750e+02
1.631999969482421875e+01,1.502154998779296875e+02
1.635999870300292969e+01,1.498318176269531250e+02
1.639999961853027344e+01,1.494477996826171875e+02
1.643999862670898438e+01,1.490635375976562500e+02
1.647999954223632812e+01,1.486788330078125000e+02
1.652000045776367188e+01,1.483175964355468750e+02
1.655999946594238281e+01,1.479560241699218750e+02
1.660000038146972656e+01,1.475940856933593750e+02
1.663999938964843750e+01,1.472317504882812500e+02
1.668000030517578125e+01,1.468690032958984375e+02
1.671999931335449219e+01,1.464694519042968750e+02
1.676000022888183594e+01,1.460696868896484375e+02
1.679999923706054688e+01,1.456697235107421875e+02
1.684000015258789062e+01,1.452695617675781250e+02
1.687999916076660156e+01,1.448692016601562500e+02
1.692000007629394531e+01,1.445136718750000000e+02
1.695999908447265625e+01,1.441577758789062500e+02
1.700000000000000000e+01,1.438109588623046875e+02
1.703999900817871094e+01,1.434731750488281250e+02
1.707999992370605469e+01,1.431350708007812500e+02
1.711999893188476562e+01,1.427704010009765625e+02
1.715999984741210938e+01,1.424055175781250000e+02
1.719999885559082031e+01,1.420405883789062500e+02
1.723999977111816406e+01,1.416755218505859375e+02
1.727999877929687500e+01,1.412750854492187500e+02
1.731999969482421875e+01,1.408633880615234375e+02
1.735999870300292969e+01,1.404519348144531250e+02
1.739999961853027344e+01,1.400405120849609375e+02
1.743999862670898438e+01,1.396287078857421875e+02
1.747999954223632812e+01,1.392154235839843750e+02
