# Start of Energy Bin (keV), Effective Area (cm^2)
1.600000023841857910e+00,5.542824268341064453e-01
1.639999985694885254e+00,7.664089798927307129e-01
1.680000066757202148e+00,1.055999040603637695e+00
1.720000028610229492e+00,1.450221419334411621e+00
1.759999990463256836e+00,1.956502556800842285e+00
1.799999952316284180e+00,2.455845832824707031e+00
1.840000033378601074e+00,1.355844378471374512e+00
1.879999995231628418e+00,1.725350499153137207e+00
1.920000076293945312e+00,2.250205993652343750e+00
1.960000038146972656e+00,2.836673021316528320e+00
2.000000000000000000e+00,3.511772871017456055e+00
2.039999961853027344e+00,4.309987545013427734e+00
2.079999923706054688e+00,5.282420635223388672e+00
2.119999885559082031e+00,4.814234733581542969e+00
2.160000085830688477e+00,5.590286731719970703e+00
2.200000047683715820e+00,5.831553459167480469e+00
2.240000009536743164e+00,6.675190448760986328e+00
2.279999971389770508e+00,7.662314891815185547e+00
2.319999933242797852e+00,8.877936363220214844e+00
2.360000133514404297e+00,1.005833435058593750e+01
2.400000095367431641e+00,1.118997287750244141e+01
2.440000057220458984e+00,1.247130775451660156e+01
2.480000019073486328e+00,1.396879768371582031e+01
2.519999980926513672e+00,1.577277469635009766e+01
2.559999942779541016e+00,1.775443840026855469e+01
2.599999904632568359e+00,1.954837799072265625e+01
2.639999866485595703e+00,1.992209053039550781e+01
2.679999828338623047e+00,2.171600914001464844e+01
2.720000028610229492e+00,2.365102005004882812e+01
2.759999990463256836e+00,2.574429130554199219e+01
2.799999952316284180e+00,2.799858093261718750e+01
2.840000152587890625e+00,3.032935714721679688e+01
2.880000114440917969e+00,3.233863830566406250e+01
2.920000076293945312e+00,3.443212890625000000e+01
2.960000038146972656e+00,3.664948272705078125e+01
3.000000000000000000e+00,3.899643707275390625e+01
3.039999961853027344e+00,4.029605865478515625e+01
3.079999923706054688e+00,4.262677001953125000e+01
3.119999885559082031e+00,4.504890823364257812e+01
3.159999847412109375e+00,4.703824234008789062e+01
3.199999809265136719e+00,4.908760070800781250e+01
3.240000009536743164e+00,5.119982910156250000e+01
3.279999971389770508e+00,5.266748809814453125e+01
3.319999933242797852e+00,5.596261978149414062e+01
3.360000133514404297e+00,5.943580627441406250e+01
3.400000095367431641e+00,6.307739257812500000e+01
3.440000057220458984e+00,6.562917327880859375e+01
3.480000019073486328e+00,6.736943817138671875e+01
3.519999980926513672e+00,6.532167816162109375e+01
3.559999942779541016e+00,6.705970764160156250e+01
3.599999904632568359e+00,6.885696411132812500e+01
3.639999866485595703e+00,7.067545318603515625e+01
3.679999828338623047e+00,7.251809692382812500e+01
3.719999790191650391e+00,7.238745117187500000e+01
3.759999752044677734e+00,7.427775573730468750e+01
3.800000190734863281e+00,7.591575622558593750e+01
3.840000152587890625e+00,7.737586212158203125e+01
3.880000114440917969e+00,7.883668518066406250e+01
3.920000076293945312e+00,8.079483032226562500e+01
3.960000038146972656e+00,8.294225311279296875e+01
4.000000000000000000e+00,8.403243255615234375e+01
4.039999961853027344e+00,8.614096832275390625e+01
4.079999923706054688e+00,8.827739715576171875e+01
4.119999885559082031e+00,9.044474792480468750e+01
4.159999847412109375e+00,9.261613464355468750e+01
4.199999809265136719e+00,9.448674774169921875e+01
4.239999771118164062e+00,9.637004852294921875e+01
4.279999732971191406e+00,9.827095794677734375e+01
4.320000171661376953e+00,9.649859619140625000e+01
4.360000133514404297e+00,9.699786376953125000e+01
4.400000095367431641e+00,9.856359863281250000e+01
4.440000057220458984e+00,1.001381072998046875e+02
4.480000019073486328e+00,1.017297744750976562e+02
4.519999980926513672e+00,1.033381500244140625e+02
4.559999942779541016e+00,1.049453506469726562e+02
4.599999904632568359e+00,1.037887039184570312e+02
4.639999866485595703e+00,1.052271881103515625e+02
4.679999828338623047e+00,1.065368118286132812e+02
4.719999790191650391e+00,1.078398056030273438e+02
4.759999752044677734e+00,1.091431884765625000e+02
4.799999713897705078e+00,1.104462966918945312e+02
4.840000152587890625e+00,1.117428359985351562e+02
4.880000114440917969e+00,1.130367889404296875e+02
4.920000076293945312e+00,1.130674819946289062e+02
4.960000038146972656e+00,1.143601226806640625e+02
5.000000000000000000e+00,1.156218719482421875e+02
5.039999961853027344e+00,1.169504318237304688e+02
5.079999923706054688e+00,1.181904296875000000e+02
5.119999885559082031e+00,1.194340744018554688e+02
5.159999847412109375e+00,1.206745910644531250e+02
5.199999809265136719e+00,1.219099426269531250e+02
5.239999771118164062e+00,1.231412582397460938e+02
5.279999732971191406e+00,1.243723297119140625e+02
5.320000171661376953e+00,1.255977554321289062e+02
5.360000133514404297e+00,1.268228683471679688e+02
5.400000095367431641e+00,1.280447235107421875e+02
5.440000057220458984e+00,1.292621459960937500e+02
5.480000019073486328e+00,1.304782409667968750e+02
5.519999980926513672e+00,1.316940612792968750e+02
5.559999942779541016e+00,1.328177032470703125e+02
5.599999904632568359e+00,1.338436126708984375e+02
5.639999866485595703e+00,1.348649444580078125e+02
5.679999828338623047e+00,1.358831939697265625e+02
5.719999790191650391e+00,1.369003906250000000e+02
5.759999752044677734e+00,1.379145812988281250e+02
5.799999713897705078e+00,1.389136352539062500e+02
5.839999675750732422e+00,1.398982849121093750e+02
5.879999637603759766e+00,1.408798217773437500e+02
5.919999599456787109e+00,1.418613281250000000e+02
5.960000038146972656e+00,1.428397064208984375e+02
6.000000000000000000e+00,1.437405700683593750e+02
6.039999961853027344e+00,1.445621948242187500e+02
6.079999923706054688e+00,1.453795013427734375e+02
6.119999885559082031e+00,1.461158294677734375e+02
6.159999847412109375e+00,1.468002929687500000e+02
6.199999809265136719e+00,1.474848785400390625e+02
6.239999771118164062e+00,1.481699523925781250e+02
6.279999732971191406e+00,1.488504638671875000e+02
6.319999694824218750e+00,1.495326385498046875e+02
6.359999656677246094e+00,1.502102966308593750e+02
6.399999618530273438e+00,1.508791351318359375e+02
6.439999580383300781e+00,1.515392456054687500e+02
6.480000019073486328e+00,1.521951293945312500e+02
6.519999980926513672e+00,1.528405914306640625e+02
6.559999942779541016e+00,1.534819946289062500e+02
6.599999904632568359e+00,1.541147460937500000e+02
6.639999866485595703e+00,1.547388305664062500e+02
6.679999828338623047e+00,1.553590698242187500e+02
6.719999790191650391e+00,1.559508361816406250e+02
6.759999752044677734e+00,1.564718475341796875e+02
6.799999713897705078e+00,1.569797973632812500e+02
6.839999675750732422e+00,1.574748840332031250e+02
6.879999637603759766e+00,1.579660491943359375e+02
6.919999599456787109e+00,1.584489593505859375e+02
6.959999561309814453e+00,1.589280242919921875e+02
7.000000000000000000e+00,1.593644409179687500e+02
7.039999961853027344e+00,1.597578430175781250e+02
7.079999923706054688e+00,1.601482391357421875e+02
7.119999885559082031e+00,1.596955871582031250e+02
7.159999847412109375e+00,1.600813446044921875e+02
7.199999809265136719e+00,1.604605560302734375e+02
7.239999771118164062e+00,1.608336639404296875e+02
7.279999732971191406e+00,1.612031707763671875e+02
7.319999694824218750e+00,1.615549163818359375e+02
7.359999656677246094e+00,1.619030303955078125e+02
7.399999618530273438e+00,1.622329254150390625e+02
7.439999580383300781e+00,1.625445861816406250e+02
7.479999542236328125e+00,1.628529510498046875e+02
7.519999980926513672e+00,1.631878814697265625e+02
7.559999942779541016e+00,1.635196075439453125e+02
7.599999904632568359e+00,1.638269042968750000e+02
7.639999866485595703e+00,1.641094970703125000e+02
7.679999828338623047e+00,1.643889923095703125e+02
7.719999790191650391e+00,1.646502227783203125e+02
7.759999752044677734e+00,1.649085998535156250e+02
7.799999713897705078e+00,1.651372375488281250e+02
7.839999675750732422e+00,1.653355712890625000e+02
7.879999637603759766e+00,1.655307617187500000e+02
7.919999599456787109e+00,1.657365112304687500e+02
7.959999561309814453e+00,1.659391326904296875e+02
7.999999523162841797e+00,1.660982513427734375e+02
8.039999961853027344e+00,1.662138061523437500e+02
8.079999923706054688e+00,1.663263244628906250e+02
8.119999885559082031e+00,1.664416046142578125e+02
8.159999847412109375e+00,1.665089874267578125e+02
8.199999809265136719e+00,1.665474853515625000e+02
8.239999771118164062e+00,1.665926666259765625e+02
8.279999732971191406e+00,1.667415466308593750e+02
8.319999694824218750e+00,1.668775329589843750e+02
8.359999656677246094e+00,1.670107421875000000e+02
8.399999618530273438e+00,1.671188659667968750e+02
8.439999580383300781e+00,1.672021789550781250e+02
8.479999542236328125e+00,1.672826080322265625e+02
8.520000457763671875e+00,1.673735809326171875e+02
8.560000419616699219e+00,1.674617156982421875e+02
8.600000381469726562e+00,1.675254821777343750e+02
8.640000343322753906e+00,1.675646667480468750e+02
8.680000305175781250e+00,1.676010131835937500e+02
8.720000267028808594e+00,1.676616668701171875e+02
8.760000228881835938e+00,1.677195129394531250e+02
8.800000190734863281e+00,1.677566833496093750e+02
8.840000152587890625e+00,1.677731323242187500e+02
8.880000114440917969e+00,1.677866668701171875e+02
8.920000076293945312e+00,1.677819519042968750e+02
8.960000038146972656e+00,1.677500152587890625e+02
9.000000000000000000e+00,1.676842956542968750e+02
9.039999961853027344e+00,1.675983276367187500e+02
9.079999923706054688e+00,1.675095520019531250e+02
9.119999885559082031e+00,1.674634246826171875e+02
9.159999847412109375e+00,1.675347290039062500e+02
9.199999809265136719e+00,1.675820159912109375e+02
9.239999771118164062e+00,1.676051788330078125e+02
9.279999732971191406e+00,1.676252136230468750e+02
9.319999694824218750e+00,1.676445922851562500e+02
9.359999656677246094e+00,1.676608581542968750e+02
9.399999618530273438e+00,1.676430358886718750e+02
9.439999580383300781e+00,1.675910644531250000e+02
9.479999542236328125e+00,1.675359039306640625e+02
9.519999504089355469e+00,1.675108337402343750e+02
9.560000419616699219e+00,1.674826965332031250e+02
9.600000381469726562e+00,1.673325500488281250e+02
9.640000343322753906e+00,1.670947570800781250e+02
9.680000305175781250e+00,1.669574890136718750e+02
9.720000267028808594e+00,1.668054351806640625e+02
9.760000228881835938e+00,1.666499633789062500e+02
9.800000190734863281e+00,1.662185211181640625e+02
9.840000152587890625e+00,1.655055084228515625e+02
9.880000114440917969e+00,1.647725524902343750e+02
9.920000076293945312e+00,1.640431671142578125e+02
9.960000038146972656e+00,1.634203643798828125e+02
1.000000000000000000e+01,1.610228729248046875e+02
1.003999996185302734e+01,1.567845458984375000e+02
1.007999992370605469e+01,1.525583648681640625e+02
1.011999988555908203e+01,1.483384399414062500e+02
1.015999984741210938e+01,1.441324462890625000e+02
1.019999980926513672e+01,1.395555725097656250e+02
1.023999977111816406e+01,1.397018432617187500e+02
1.027999973297119141e+01,1.398436889648437500e+02
1.032000064849853516e+01,1.399971160888671875e+02
1.036000061035156250e+01,1.401464080810546875e+02
1.040000057220458984e+01,1.408336944580078125e+02
1.044000053405761719e+01,1.418578643798828125e+02
1.048000049591064453e+01,1.422537078857421875e+02
1.052000045776367188e+01,1.426320190429687500e+02
1.056000041961669922e+01,1.430071258544921875e+02
1.060000038146972656e+01,1.429821472167968750e+02
1.064000034332275391e+01,1.425590515136718750e+02
1.068000030517578125e+01,1.421347045898437500e+02
1.072000026702880859e+01,1.417013244628906250e+02
1.076000022888183594e+01,1.412669830322265625e+02
1.080000019073486328e+01,1.407524108886718750e+02
1.084000015258789062e+01,1.401484832763671875e+02
1.088000011444091797e+01,1.395398254394531250e+02
1.092000007629394531e+01,1.389185028076171875e+02
1.096000003814697266e+01,1.382974700927734375e+02
1.100000000000000000e+01,1.376022186279296875e+02
1.103999996185302734e+01,1.368333282470703125e+02
1.107999992370605469e+01,1.360659027099609375e+02
1.111999988555908203e+01,1.358551330566406250e+02
1.115999984741210938e+01,1.356433563232421875e+02
1.119999980926513672e+01,1.350951995849609375e+02
1.123999977111816406e+01,1.342112731933593750e+02
1.127999973297119141e+01,1.333271026611328125e+02
1.131999969482421875e+01,1.324573211669921875e+02
1.136000061035156250e+01,1.315872344970703125e+02
1.140000057220458984e+01,1.301017456054687500e+02
1.144000053405761719e+01,1.279997406005859375e+02
1.148000049591064453e+01,1.258956909179687500e+02
1.152000045776367188e+01,1.236947326660156250e+02
1.156000041961669922e+01,1.182808990478515625e+02
1.160000038146972656e+01,1.167310867309570312e+02
1.164000034332275391e+01,1.162754287719726562e+02
1.168000030517578125e+01,1.158166046142578125e+02
1.172000026702880859e+01,1.153453216552734375e+02
1.176000022888183594e+01,1.148693923950195312e+02
1.180000019073486328e+01,1.143236923217773438e+02
1.184000015258789062e+01,1.137106857299804688e+02
1.188000011444091797e+01,1.130979919433593750e+02
1.192000007629394531e+01,1.124869384765625000e+02
1.196000003814697266e+01,1.118725051879882812e+02
1.200000000000000000e+01,1.111764068603515625e+02
1.203999996185302734e+01,1.103991851806640625e+02
1.207999992370605469e+01,1.098631591796875000e+02
1.211999988555908203e+01,1.100075531005859375e+02
1.215999984741210938e+01,1.101514892578125000e+02
1.219999980926513672e+01,1.102430572509765625e+02
1.223999977111816406e+01,1.102820663452148438e+02
1.227999973297119141e+01,1.103205490112304688e+02
1.231999969482421875e+01,1.103756027221679688e+02
1.236000061035156250e+01,1.104302291870117188e+02
1.240000057220458984e+01,1.104124374389648438e+02
1.244000053405761719e+01,1.103225250244140625e+02
1.248000049591064453e+01,1.102320327758789062e+02
1.252000045776367188e+01,1.101202621459960938e+02
1.256000041961669922e+01,1.100081787109375000e+02
1.260000038146972656e+01,1.098570861816406250e+02
1.264000034332275391e+01,1.096671752929687500e+02
1.268000030517578125e+01,1.094769897460937500e+02
1.272000026702880859e+01,1.092798767089843750e+02
1.276000022888183594e+01,1.090824127197265625e+02
1.280000019073486328e+01,1.088608474731445312e+02
1.284000015258789062e+01,1.086151733398437500e+02
1.288000011444091797e+01,1.083696746826171875e+02
1.292000007629394531e+01,1.081461486816406250e+02
1.296000003814697266e+01,1.079223403930664062e+02
1.300000000000000000e+01,1.075942840576171875e+02
1.303999996185302734e+01,1.071622238159179688e+02
1.307999992370605469e+01,1.067304077148437500e+02
1.311999988555908203e+01,1.062790527343750000e+02
1.315999984741210938e+01,1.058266983032226562e+02
1.319999980926513672e+01,1.053160705566406250e+02
1.323999977111816406e+01,1.047477722167968750e+02
1.327999973297119141e+01,1.041414260864257812e+02
1.331999969482421875e+01,1.025856323242187500e+02
1.335999965667724609e+01,1.020371017456054688e+02
1.340000057220458984e+01,1.016593780517578125e+02
1.344000053405761719e+01,1.014071350097656250e+02
1.348000049591064453e+01,1.011544647216796875e+02
1.352000045776367188e+01,1.009067993164062500e+02
1.356000041961669922e+01,1.006587982177734375e+02
1.360000038146972656e+01,1.003777084350585938e+02
1.364000034332275391e+01,1.000638046264648438e+02
1.368000030517578125e+01,9.974929046630859375e+01
1.372000026702880859e+01,9.943032073974609375e+01
1.376000022888183594e+01,9.911101531982421875e+01
1.380000019073486328e+01,9.876564025878906250e+01
1.384000015258789062e+01,9.805506896972656250e+01
1.388000011444091797e+01,9.768561553955078125e+01
1.392000007629394531e+01,9.749311828613281250e+01
1.396000003814697266e+01,9.730090332031250000e+01
1.400000000000000000e+01,9.712699890136718750e+01
1.403999996185302734e+01,9.697141265869140625e+01
1.407999992370605469e+01,9.681546020507812500e+01
1.411999988555908203e+01,9.665669250488281250e+01
1.415999984741210938e+01,9.649761199951171875e+01
1.419999980926513672e+01,9.633563995361328125e+01
1.423999977111816406e+01,9.617076110839843750e+01
1.427999973297119141e+01,9.600558471679687500e+01
1.431999969482421875e+01,9.584259033203125000e+01
1.435999965667724609e+01,9.567932128906250000e+01
1.439999961853027344e+01,9.550531005859375000e+01
1.444000053405761719e+01,9.531755065917968750e+01
1.448000049591064453e+01,9.512973022460937500e+01
1.452000045776367188e+01,9.494615173339843750e+01
1.456000041961669922e+01,9.476232147216796875e+01
1.460000038146972656e+01,9.457647705078125000e+01
1.464000034332275391e+01,9.438854980468750000e+01
1.468000030517578125e+01,9.420040893554687500e+01
1.472000026702880859e+01,9.401457977294921875e+01
1.476000022888183594e+01,9.382852935791015625e+01
1.480000019073486328e+01,9.364070129394531250e+01
1.484000015258789062e+01,9.345104217529296875e+01
1.488000011444091797e+01,9.326095581054687500e+01
1.492000007629394531e+01,9.306710052490234375e+01
1.496000003814697266e+01,9.287301635742187500e+01
1.500000000000000000e+01,9.267928314208984375e+01
1.503999996185302734e+01,9.248583984375000000e+01
1.507999992370605469e+01,9.229214477539062500e+01
1.511999988555908203e+01,9.211405181884765625e+01
1.515999984741210938e+01,9.193569183349609375e+01
1.519999980926513672e+01,9.175399780273437500e+01
1.523999977111816406e+01,9.156893920898437500e+01
1.527999973297119141e+01,9.138359069824218750e+01
1.531999969482421875e+01,9.117977905273437500e+01
1.535999965667724609e+01,9.097573089599609375e+01
1.539999961853027344e+01,9.077196502685546875e+01
1.544000053405761719e+01,9.056845855712890625e+01
1.548000049591064453e+01,9.036473083496093750e+01
1.552000045776367188e+01,9.016419219970703125e+01
1.556000041961669922e+01,8.996333312988281250e+01
1.560000038146972656e+01,8.976748657226562500e+01
1.564000034332275391e+01,8.957658386230468750e+01
1.568000030517578125e+01,8.938539123535156250e+01
1.572000026702880859e+01,8.920098876953125000e+01
1.576000022888183594e+01,8.901629638671875000e+01
1.580000019073486328e+01,8.882578277587890625e+01
1.584000015258789062e+01,8.862940979003906250e+01
1.588000011444091797e+01,8.843098449707031250e+01
1.592000007629394531e+01,8.822624969482421875e+01
1.596000003814697266e+01,8.802123260498046875e+01
1.600000000000000000e+01,8.781320953369140625e+01
1.603999900817871094e+01,8.760218048095703125e+01
1.607999992370605469e+01,8.739089965820312500e+01
1.611999893188476562e+01,8.721476745605468750e+01
1.615999984741210938e+01,8.703817749023437500e+01
1.619999885559082031e+01,8.686119079589843750e+01
1.623999977111816406e+01,8.668373107910156250e+01
1.627999877929687500e+01,8.650588226318359375e+01
1.631999969482421875e+01,8.627819824218750000e+01
1.635999870300292969e+01,8.605037689208984375e+01
1.639999961853027344e+01,8.582239532470703125e+01
1.643999862670898438e+01,8.559429168701171875e+01
1.647999954223632812e+01,8.536596679687500000e+01
1.652000045776367188e+01,8.516312408447265625e+01
1.655999946594238281e+01,8.496004486083984375e+01
1.660000038146972656e+01,8.475670623779296875e+01
1.663999938964843750e+01,8.455308532714843750e+01
1.668000030517578125e+01,8.434918212890625000e+01
1.671999931335449219e+01,8.414056396484375000e+01
1.676000022888183594e+01,8.393168640136718750e+01
1.679999923706054688e+01,8.372256469726562500e+01
1.684000015258789062e+01,8.351318359375000000e+01
1.687999916076660156e+01,8.330358123779296875e+01
1.692000007629394531e+01,8.308472442626953125e+01
1.695999908447265625e+01,8.286573028564453125e+01
1.700000000000000000e+01,8.264454650878906250e+01
1.703999900817871094e+01,8.242117309570312500e+01
1.707999992370605469e+01,8.219771575927734375e+01
1.711999893188476562e+01,8.201045227050781250e+01
1.715999984741210938e+01,8.182286834716796875e+01
1.719999885559082031e+01,8.163508605957031250e+01
1.723999977111816406e+01,8.144704437255859375e+01
1.727999877929687500e+01,8.121946716308593750e+01
1.731999969482421875e+01,8.095122528076171875e+01
1.735999870300292969e+01,8.068324279785156250e+01
1.739999961853027344e+01,8.041542053222656250e+01
1.743999862670898438e+01,8.014752197265625000e+01
1.747999954223632812e+01,7.987890625000000000e+01
