# Start of Energy Bin (keV), Effective Area (cm^2)
1.600000023841857910e+00,8.712577223777770996e-01
1.639999985694885254e+00,1.209263324737548828e+00
1.680000066757202148e+00,1.672574996948242188e+00
1.720000028610229492e+00,2.305863857269287109e+00
1.759999990463256836e+00,3.123023748397827148e+00
1.799999952316284180e+00,3.942229509353637695e+00
1.840000033378601074e+00,2.191066980361938477e+00
1.879999995231628418e+00,2.793623924255371094e+00
1.920000076293945312e+00,3.633574724197387695e+00
1.960000038146972656e+00,4.568213939666748047e+00
2.000000000000000000e+00,5.636211395263671875e+00
2.039999961853027344e+00,6.889186859130859375e+00
2.079999923706054688e+00,8.409553527832031250e+00
2.119999885559082031e+00,7.453829288482666016e+00
2.160000085830688477e+00,8.654186248779296875e+00
2.200000047683715820e+00,8.946700096130371094e+00
2.240000009536743164e+00,1.023776721954345703e+01
2.279999971389770508e+00,1.174806499481201172e+01
2.319999933242797852e+00,1.359987163543701172e+01
2.360000133514404297e+00,1.539282608032226562e+01
2.400000095367431641e+00,1.710927772521972656e+01
2.440000057220458984e+00,1.905859565734863281e+01
2.480000019073486328e+00,2.134665870666503906e+01
2.519999980926513672e+00,2.412142944335937500e+01
2.559999942779541016e+00,2.717455482482910156e+01
2.599999904632568359e+00,2.994887924194335938e+01
2.639999866485595703e+00,3.036741447448730469e+01
2.679999828338623047e+00,3.314168548583984375e+01
2.720000028610229492e+00,3.613185119628906250e+01
2.759999990463256836e+00,3.936966705322265625e+01
2.799999952316284180e+00,4.285933685302734375e+01
2.840000152587890625e+00,4.646578979492187500e+01
2.880000114440917969e+00,4.958080291748046875e+01
2.920000076293945312e+00,5.284267425537109375e+01
2.960000038146972656e+00,5.630113983154296875e+01
3.000000000000000000e+00,6.015483093261718750e+01
3.039999961853027344e+00,6.244396972656250000e+01
3.079999923706054688e+00,6.650126647949218750e+01
3.119999885559082031e+00,7.072942352294921875e+01
3.159999847412109375e+00,7.432115936279296875e+01
3.199999809265136719e+00,7.804666900634765625e+01
3.240000009536743164e+00,8.191230773925781250e+01
3.279999971389770508e+00,8.468302917480468750e+01
3.319999933242797852e+00,8.873447418212890625e+01
3.360000133514404297e+00,9.294375610351562500e+01
3.400000095367431641e+00,9.730889129638671875e+01
3.440000057220458984e+00,1.010985260009765625e+02
3.480000019073486328e+00,1.040415802001953125e+02
3.519999980926513672e+00,1.014429473876953125e+02
3.559999942779541016e+00,1.043860015869140625e+02
3.599999904632568359e+00,1.074300765991210938e+02
3.639999866485595703e+00,1.105196380615234375e+02
3.679999828338623047e+00,1.136602020263671875e+02
3.719999790191650391e+00,1.138973846435546875e+02
3.759999752044677734e+00,1.171423339843750000e+02
3.800000190734863281e+00,1.200053176879882812e+02
3.840000152587890625e+00,1.225991592407226562e+02
3.880000114440917969e+00,1.252061767578125000e+02
3.920000076293945312e+00,1.283202056884765625e+02
3.960000038146972656e+00,1.316360168457031250e+02
4.000000000000000000e+00,1.333639068603515625e+02
4.039999961853027344e+00,1.366101531982421875e+02
4.079999923706054688e+00,1.398955078125000000e+02
4.119999885559082031e+00,1.432216796875000000e+02
4.159999847412109375e+00,1.465485839843750000e+02
4.199999809265136719e+00,1.493946685791015625e+02
4.239999771118164062e+00,1.522564392089843750e+02
4.279999732971191406e+00,1.551409149169921875e+02
4.320000171661376953e+00,1.525612792968750000e+02
4.360000133514404297e+00,1.534929809570312500e+02
4.400000095367431641e+00,1.560603942871093750e+02
4.440000057220458984e+00,1.586440277099609375e+02
4.480000019073486328e+00,1.612558898925781250e+02
4.519999980926513672e+00,1.638865051269531250e+02
4.559999942779541016e+00,1.665179595947265625e+02
4.599999904632568359e+00,1.649971008300781250e+02
4.639999866485595703e+00,1.673506927490234375e+02
4.679999828338623047e+00,1.695131225585937500e+02
4.719999790191650391e+00,1.716769714355468750e+02
4.759999752044677734e+00,1.738433837890625000e+02
4.799999713897705078e+00,1.760112304687500000e+02
4.840000152587890625e+00,1.781710815429687500e+02
4.880000114440917969e+00,1.803287048339843750e+02
4.920000076293945312e+00,1.805882263183593750e+02
4.960000038146972656e+00,1.827470245361328125e+02
5.000000000000000000e+00,1.848590087890625000e+02
5.039999961853027344e+00,1.870753936767578125e+02
5.079999923706054688e+00,1.891486206054687500e+02
5.119999885559082031e+00,1.912170257568359375e+02
5.159999847412109375e+00,1.932815246582031250e+02
5.199999809265136719e+00,1.953396911621093750e+02
5.239999771118164062e+00,1.973933105468750000e+02
5.279999732971191406e+00,1.994475555419921875e+02
5.320000171661376953e+00,2.015027313232421875e+02
5.360000133514404297e+00,2.035587005615234375e+02
5.400000095367431641e+00,2.056116485595703125e+02
5.440000057220458984e+00,2.076597290039062500e+02
5.480000019073486328e+00,2.097071228027343750e+02
5.519999980926513672e+00,2.117541198730468750e+02
5.559999942779541016e+00,2.136541748046875000e+02
5.599999904632568359e+00,2.153992309570312500e+02
5.639999866485595703e+00,2.171394805908203125e+02
5.679999828338623047e+00,2.188759155273437500e+02
5.719999790191650391e+00,2.206010742187500000e+02
5.759999752044677734e+00,2.223222808837890625e+02
5.799999713897705078e+00,2.240220489501953125e+02
5.839999675750732422e+00,2.257015686035156250e+02
5.879999637603759766e+00,2.273771362304687500e+02
5.919999599456787109e+00,2.290662384033203125e+02
5.960000038146972656e+00,2.307514343261718750e+02
6.000000000000000000e+00,2.323025207519531250e+02
6.039999961853027344e+00,2.337163848876953125e+02
6.079999923706054688e+00,2.351241149902343750e+02
6.119999885559082031e+00,2.363948059082031250e+02
6.159999847412109375e+00,2.375822448730468750e+02
6.199999809265136719e+00,2.387715759277343750e+02
6.239999771118164062e+00,2.399631958007812500e+02
6.279999732971191406e+00,2.411480865478515625e+02
6.319999694824218750e+00,2.423447723388671875e+02
6.359999656677246094e+00,2.435348205566406250e+02
6.399999618530273438e+00,2.447137298583984375e+02
6.439999580383300781e+00,2.458816680908203125e+02
6.480000019073486328e+00,2.470433959960937500e+02
6.519999980926513672e+00,2.481900634765625000e+02
6.559999942779541016e+00,2.493308258056640625e+02
6.599999904632568359e+00,2.504614562988281250e+02
6.639999866485595703e+00,2.515819549560546875e+02
6.679999828338623047e+00,2.526969757080078125e+02
6.719999790191650391e+00,2.537542724609375000e+02
6.759999752044677734e+00,2.546969909667968750e+02
6.799999713897705078e+00,2.556242828369140625e+02
6.839999675750732422e+00,2.565365600585937500e+02
6.879999637603759766e+00,2.574430541992187500e+02
6.919999599456787109e+00,2.583441467285156250e+02
6.959999561309814453e+00,2.592396240234375000e+02
7.000000000000000000e+00,2.600662841796875000e+02
7.039999961853027344e+00,2.608235778808593750e+02
7.079999923706054688e+00,2.615764770507812500e+02
7.119999885559082031e+00,2.609356689453125000e+02
7.159999847412109375e+00,2.616647338867187500e+02
7.199999809265136719e+00,2.624067993164062500e+02
7.239999771118164062e+00,2.631628723144531250e+02
7.279999732971191406e+00,2.639136962890625000e+02
7.319999694824218750e+00,2.646594848632812500e+02
7.359999656677246094e+00,2.654000854492187500e+02
7.399999618530273438e+00,2.661264343261718750e+02
7.439999580383300781e+00,2.668385009765625000e+02
7.479999542236328125e+00,2.675460510253906250e+02
7.519999980926513672e+00,2.682484130859375000e+02
7.559999942779541016e+00,2.689461364746093750e+02
7.599999904632568359e+00,2.696329345703125000e+02
7.639999866485595703e+00,2.703084411621093750e+02
7.679999828338623047e+00,2.709797363281250000e+02
7.719999790191650391e+00,2.716468811035156250e+02
7.759999752044677734e+00,2.723103637695312500e+02
7.799999713897705078e+00,2.729645080566406250e+02
7.839999675750732422e+00,2.736086730957031250e+02
7.879999637603759766e+00,2.742488708496093750e+02
7.919999599456787109e+00,2.748853759765625000e+02
7.959999561309814453e+00,2.755179138183593750e+02
7.999999523162841797e+00,2.761283569335937500e+02
8.039999961853027344e+00,2.767167663574218750e+02
8.079999923706054688e+00,2.773016967773437500e+02
8.119999885559082031e+00,2.778847351074218750e+02
8.159999847412109375e+00,2.783892822265625000e+02
8.199999809265136719e+00,2.788810119628906250e+02
8.239999771118164062e+00,2.793699645996093750e+02
8.279999732971191406e+00,2.798847656250000000e+02
8.319999694824218750e+00,2.803945312500000000e+02
8.359999656677246094e+00,2.809010620117187500e+02
8.399999618530273438e+00,2.813923034667968750e+02
8.439999580383300781e+00,2.818687744140625000e+02
8.479999542236328125e+00,2.823420715332031250e+02
8.520000457763671875e+00,2.828125000000000000e+02
8.560000419616699219e+00,2.832797851562500000e+02
8.600000381469726562e+00,2.837258911132812500e+02
8.640000343322753906e+00,2.841505126953125000e+02
8.680000305175781250e+00,2.845721435546875000e+02
8.720000267028808594e+00,2.849907836914062500e+02
8.760000228881835938e+00,2.854065246582031250e+02
8.800000190734863281e+00,2.857927246093750000e+02
8.840000152587890625e+00,2.861493835449218750e+02
8.880000114440917969e+00,2.865029907226562500e+02
8.920000076293945312e+00,2.868544311523437500e+02
8.960000038146972656e+00,2.871612243652343750e+02
9.000000000000000000e+00,2.874004211425781250e+02
9.039999961853027344e+00,2.875950622558593750e+02
9.079999923706054688e+00,2.877866210937500000e+02
9.119999885559082031e+00,2.879984130859375000e+02
9.159999847412109375e+00,2.882495117187500000e+02
9.199999809265136719e+00,2.884392395019531250e+02
9.239999771118164062e+00,2.885673217773437500e+02
9.279999732971191406e+00,2.886923828125000000e+02
9.319999694824218750e+00,2.888020019531250000e+02
9.359999656677246094e+00,2.889085998535156250e+02
9.399999618530273438e+00,2.889385375976562500e+02
9.439999580383300781e+00,2.888918151855468750e+02
9.479999542236328125e+00,2.888419494628906250e+02
9.519999504089355469e+00,2.888006896972656250e+02
9.560000419616699219e+00,2.887566528320312500e+02
9.600000381469726562e+00,2.885008544921875000e+02
9.640000343322753906e+00,2.880893554687500000e+02
9.680000305175781250e+00,2.878435363769531250e+02
9.720000267028808594e+00,2.875981750488281250e+02
9.760000228881835938e+00,2.873496704101562500e+02
9.800000190734863281e+00,2.867243347167968750e+02
9.840000152587890625e+00,2.857134399414062500e+02
9.880000114440917969e+00,2.846720581054687500e+02
9.920000076293945312e+00,2.836180725097656250e+02
9.960000038146972656e+00,2.830546875000000000e+02
1.000000000000000000e+01,2.798682556152343750e+02
1.003999996185302734e+01,2.736890258789062500e+02
1.007999992370605469e+01,2.674808959960937500e+02
1.011999988555908203e+01,2.612705383300781250e+02
1.015999984741210938e+01,2.550312194824218750e+02
1.019999980926513672e+01,2.481015167236328125e+02
1.023999977111816406e+01,2.483120727539062500e+02
1.027999973297119141e+01,2.485137939453125000e+02
1.032000064849853516e+01,2.487100219726562500e+02
1.036000061035156250e+01,2.488978424072265625e+02
1.040000057220458984e+01,2.499894714355468750e+02
1.044000053405761719e+01,2.516300811767578125e+02
1.048000049591064453e+01,2.521672363281250000e+02
1.052000045776367188e+01,2.526703033447265625e+02
1.056000041961669922e+01,2.531686248779296875e+02
1.060000038146972656e+01,2.531209411621093750e+02
1.064000034332275391e+01,2.525304107666015625e+02
1.068000030517578125e+01,2.519383087158203125e+02
1.072000026702880859e+01,2.513493194580078125e+02
1.076000022888183594e+01,2.507590942382812500e+02
1.080000019073486328e+01,2.500614929199218750e+02
1.084000015258789062e+01,2.492396850585937500e+02
1.088000011444091797e+01,2.484090270996093750e+02
1.092000007629394531e+01,2.475998535156250000e+02
1.096000003814697266e+01,2.467903900146484375e+02
1.100000000000000000e+01,2.458811492919921875e+02
1.103999996185302734e+01,2.448723754882812500e+02
1.107999992370605469e+01,2.438642120361328125e+02
1.111999988555908203e+01,2.437779846191406250e+02
1.115999984741210938e+01,2.436893005371093750e+02
1.119999980926513672e+01,2.431315765380859375e+02
1.123999977111816406e+01,2.421024017333984375e+02
1.127999973297119141e+01,2.410673522949218750e+02
1.131999969482421875e+01,2.399981994628906250e+02
1.136000061035156250e+01,2.389237365722656250e+02
1.140000057220458984e+01,2.366525268554687500e+02
1.144000053405761719e+01,2.331782836914062500e+02
1.148000049591064453e+01,2.296895141601562500e+02
1.152000045776367188e+01,2.259909667968750000e+02
1.156000041961669922e+01,2.156782226562500000e+02
1.160000038146972656e+01,2.128772430419921875e+02
1.164000034332275391e+01,2.120748443603515625e+02
1.168000030517578125e+01,2.112662963867187500e+02
1.172000026702880859e+01,2.104472351074218750e+02
1.176000022888183594e+01,2.096189270019531250e+02
1.180000019073486328e+01,2.087459411621093750e+02
1.184000015258789062e+01,2.078319396972656250e+02
1.188000011444091797e+01,2.069166870117187500e+02
1.192000007629394531e+01,2.059840087890625000e+02
1.196000003814697266e+01,2.050435333251953125e+02
1.200000000000000000e+01,2.039582214355468750e+02
1.203999996185302734e+01,2.027286682128906250e+02
1.207999992370605469e+01,2.018507232666015625e+02
1.211999988555908203e+01,2.020035095214843750e+02
1.215999984741210938e+01,2.021553955078125000e+02
1.219999980926513672e+01,2.022525024414062500e+02
1.223999977111816406e+01,2.022944946289062500e+02
1.227999973297119141e+01,2.023354644775390625e+02
1.231999969482421875e+01,2.023730773925781250e+02
1.236000061035156250e+01,2.024097900390625000e+02
1.240000057220458984e+01,2.023463745117187500e+02
1.244000053405761719e+01,2.021834716796875000e+02
1.248000049591064453e+01,2.020194091796875000e+02
1.252000045776367188e+01,2.018666534423828125e+02
1.256000041961669922e+01,2.017131347656250000e+02
1.260000038146972656e+01,2.014966735839843750e+02
1.264000034332275391e+01,2.012174377441406250e+02
1.268000030517578125e+01,2.009375000000000000e+02
1.272000026702880859e+01,2.006584930419921875e+02
1.276000022888183594e+01,2.003785247802734375e+02
1.280000019073486328e+01,2.000561218261718750e+02
1.284000015258789062e+01,1.996912536621093750e+02
1.288000011444091797e+01,1.993264007568359375e+02
1.292000007629394531e+01,1.989299926757812500e+02
1.296000003814697266e+01,1.985329895019531250e+02
1.300000000000000000e+01,1.979327697753906250e+02
1.303999996185302734e+01,1.971298522949218750e+02
1.307999992370605469e+01,1.963274841308593750e+02
1.311999988555908203e+01,1.955497283935546875e+02
1.315999984741210938e+01,1.947696838378906250e+02
1.319999980926513672e+01,1.938736419677734375e+02
1.323999977111816406e+01,1.928627166748046875e+02
1.327999973297119141e+01,1.916227111816406250e+02
1.331999969482421875e+01,1.884605102539062500e+02
1.335999965667724609e+01,1.872546691894531250e+02
1.340000057220458984e+01,1.864033355712890625e+02
1.344000053405761719e+01,1.858384552001953125e+02
1.348000049591064453e+01,1.852732849121093750e+02
1.352000045776367188e+01,1.847223205566406250e+02
1.356000041961669922e+01,1.841712341308593750e+02
1.360000038146972656e+01,1.835638122558593750e+02
1.364000034332275391e+01,1.829006347656250000e+02
1.368000030517578125e+01,1.822368469238281250e+02
1.372000026702880859e+01,1.815725402832031250e+02
1.376000022888183594e+01,1.809081268310546875e+02
1.380000019073486328e+01,1.801861877441406250e+02
1.384000015258789062e+01,1.787301940917968750e+02
1.388000011444091797e+01,1.779442291259765625e+02
1.392000007629394531e+01,1.774931640625000000e+02
1.396000003814697266e+01,1.770431518554687500e+02
1.400000000000000000e+01,1.766362915039062500e+02
1.403999996185302734e+01,1.762725982666015625e+02
1.407999992370605469e+01,1.759085083007812500e+02
1.411999988555908203e+01,1.755408630371093750e+02
1.415999984741210938e+01,1.751728820800781250e+02
1.419999980926513672e+01,1.748025970458984375e+02
1.423999977111816406e+01,1.744299621582031250e+02
1.427999973297119141e+01,1.740570220947265625e+02
1.431999969482421875e+01,1.736856384277343750e+02
1.435999965667724609e+01,1.733140411376953125e+02
1.439999961853027344e+01,1.729226684570312500e+02
1.444000053405761719e+01,1.725062255859375000e+02
1.448000049591064453e+01,1.720900115966796875e+02
1.452000045776367188e+01,1.716762542724609375e+02
1.456000041961669922e+01,1.712623443603515625e+02
1.460000038146972656e+01,1.708434600830078125e+02
1.464000034332275391e+01,1.704194335937500000e+02
1.468000030517578125e+01,1.699953918457031250e+02
1.472000026702880859e+01,1.695686492919921875e+02
1.476000022888183594e+01,1.691418762207031250e+02
1.480000019073486328e+01,1.687128906250000000e+02
1.484000015258789062e+01,1.682815856933593750e+02
1.488000011444091797e+01,1.678498992919921875e+02
1.492000007629394531e+01,1.674243621826171875e+02
1.496000003814697266e+01,1.669987487792968750e+02
1.500000000000000000e+01,1.665721893310546875e+02
1.503999996185302734e+01,1.661445922851562500e+02
1.507999992370605469e+01,1.657169036865234375e+02
1.511999988555908203e+01,1.652829895019531250e+02
1.515999984741210938e+01,1.648491516113281250e+02
1.519999980926513672e+01,1.644117736816406250e+02
1.523999977111816406e+01,1.639709167480468750e+02
1.527999973297119141e+01,1.635299682617187500e+02
1.531999969482421875e+01,1.630886993408203125e+02
1.535999965667724609e+01,1.626473999023437500e+02
1.539999961853027344e+01,1.622072601318359375e+02
1.544000053405761719e+01,1.617682800292968750e+02
1.548000049591064453e+01,1.613292694091796875e+02
1.552000045776367188e+01,1.608916168212890625e+02
1.556000041961669922e+01,1.604538116455078125e+02
1.560000038146972656e+01,1.600254821777343750e+02
1.564000034332275391e+01,1.596065368652343750e+02
1.568000030517578125e+01,1.591874084472656250e+02
1.572000026702880859e+01,1.588320617675781250e+02
1.576000022888183594e+01,1.584772033691406250e+02
1.580000019073486328e+01,1.581144714355468750e+02
1.584000015258789062e+01,1.577437744140625000e+02
1.588000011444091797e+01,1.573695068359375000e+02
1.592000007629394531e+01,1.569925231933593750e+02
1.596000003814697266e+01,1.566151123046875000e+02
1.600000000000000000e+01,1.562396240234375000e+02
1.603999900817871094e+01,1.558660736083984375e+02
1.607999992370605469e+01,1.554920654296875000e+02
1.611999893188476562e+01,1.551248779296875000e+02
1.615999984741210938e+01,1.547571716308593750e+02
1.619999885559082031e+01,1.543890075683593750e+02
1.623999977111816406e+01,1.540202941894531250e+02
1.627999877929687500e+01,1.536511840820312500e+02
1.631999969482421875e+01,1.532754211425781250e+02
1.635999870300292969e+01,1.528992462158203125e+02
1.639999961853027344e+01,1.525226593017578125e+02
1.643999862670898438e+01,1.521457214355468750e+02
1.647999954223632812e+01,1.517682647705078125e+02
1.652000045776367188e+01,1.513988494873046875e+02
1.655999946594238281e+01,1.510291137695312500e+02
1.660000038146972656e+01,1.506589813232421875e+02
1.663999938964843750e+01,1.502884368896484375e+02
1.668000030517578125e+01,1.499174804687500000e+02
1.671999931335449219e+01,1.495462493896484375e+02
1.676000022888183594e+01,1.491745758056640625e+02
1.679999923706054688e+01,1.488025054931640625e+02
1.684000015258789062e+01,1.484300231933593750e+02
1.687999916076660156e+01,1.480571594238281250e+02
1.692000007629394531e+01,1.476825408935546875e+02
1.695999908447265625e+01,1.473075866699218750e+02
1.700000000000000000e+01,1.469440155029296875e+02
1.703999900817871094e+01,1.465916900634765625e+02
1.707999992370605469e+01,1.462390747070312500e+02
1.711999893188476562e+01,1.459058227539062500e+02
1.715999984741210938e+01,1.455721740722656250e+02
1.719999885559082031e+01,1.452382812500000000e+02
1.723999977111816406e+01,1.449040679931640625e+02
1.727999877929687500e+01,1.445480499267578125e+02
1.731999969482421875e+01,1.441714782714843750e+02
1.735999870300292969e+01,1.437949218750000000e+02
1.739999961853027344e+01,1.434181823730468750e+02
1.743999862670898438e+01,1.430407714843750000e+02
1.747999954223632812e+01,1.426616363525390625e+02
