# Start of Energy Bin (keV), Effective Area (cm^2)
1.600000023841857910e+00,6.466370820999145508e-01
1.639999985694885254e+00,8.943873047828674316e-01
1.680000066757202148e+00,1.232723951339721680e+00
1.720000028610229492e+00,1.693462252616882324e+00
1.759999990463256836e+00,2.285401105880737305e+00
1.799999952316284180e+00,2.870068788528442383e+00
1.840000033378601074e+00,1.585436701774597168e+00
1.879999995231628418e+00,2.017761707305908203e+00
1.920000076293945312e+00,2.630932569503784180e+00
1.960000038146972656e+00,3.315831422805786133e+00
2.000000000000000000e+00,4.103709220886230469e+00
2.039999961853027344e+00,5.034600734710693359e+00
2.079999923706054688e+00,6.168259620666503906e+00
2.119999885559082031e+00,5.620261192321777344e+00
2.160000085830688477e+00,6.525472640991210938e+00
2.200000047683715820e+00,6.806537628173828125e+00
2.240000009536743164e+00,7.790861129760742188e+00
2.279999971389770508e+00,8.942545890808105469e+00
2.319999933242797852e+00,1.036036205291748047e+01
2.360000133514404297e+00,1.173682785034179688e+01
2.400000095367431641e+00,1.305624294281005859e+01
2.440000057220458984e+00,1.455018234252929688e+01
2.480000019073486328e+00,1.629606628417968750e+01
2.519999980926513672e+00,1.839903259277343750e+01
2.559999942779541016e+00,2.070914649963378906e+01
2.599999904632568359e+00,2.280037498474121094e+01
2.639999866485595703e+00,2.323501396179199219e+01
2.679999828338623047e+00,2.532650756835937500e+01
2.720000028610229492e+00,2.758229827880859375e+01
2.759999990463256836e+00,3.002248954772949219e+01
2.799999952316284180e+00,3.265037155151367188e+01
2.840000152587890625e+00,3.536696624755859375e+01
2.880000114440917969e+00,3.770827102661132812e+01
2.920000076293945312e+00,4.015067291259765625e+01
2.960000038146972656e+00,4.273767471313476562e+01
3.000000000000000000e+00,4.549317169189453125e+01
3.039999961853027344e+00,4.704599761962890625e+01
3.079999923706054688e+00,4.980613327026367188e+01
3.119999885559082031e+00,5.267413711547851562e+01
3.159999847412109375e+00,5.503984832763671875e+01
3.199999809265136719e+00,5.747930145263671875e+01
3.240000009536743164e+00,5.999595642089843750e+01
3.279999971389770508e+00,6.176070404052734375e+01
3.319999933242797852e+00,6.549848937988281250e+01
3.360000133514404297e+00,6.943225097656250000e+01
3.400000095367431641e+00,7.355203247070312500e+01
3.440000057220458984e+00,7.650718688964843750e+01
3.480000019073486328e+00,7.855490112304687500e+01
3.519999980926513672e+00,7.618448638916015625e+01
3.559999942779541016e+00,7.822951507568359375e+01
3.599999904632568359e+00,8.034476470947265625e+01
3.639999866485595703e+00,8.248595428466796875e+01
3.679999828338623047e+00,8.465653228759765625e+01
3.719999790191650391e+00,8.452859497070312500e+01
3.759999752044677734e+00,8.676136016845703125e+01
3.800000190734863281e+00,8.870088195800781250e+01
3.840000152587890625e+00,9.043389129638671875e+01
3.880000114440917969e+00,9.216900634765625000e+01
3.920000076293945312e+00,9.445623016357421875e+01
3.960000038146972656e+00,9.695530700683593750e+01
4.000000000000000000e+00,9.821820068359375000e+01
4.039999961853027344e+00,1.006710128784179688e+02
4.079999923706054688e+00,1.031559219360351562e+02
4.119999885559082031e+00,1.056714859008789062e+02
4.159999847412109375e+00,1.081910400390625000e+02
4.199999809265136719e+00,1.103585968017578125e+02
4.239999771118164062e+00,1.125403900146484375e+02
4.279999732971191406e+00,1.147421340942382812e+02
4.320000171661376953e+00,1.126629486083984375e+02
4.360000133514404297e+00,1.132507476806640625e+02
4.400000095367431641e+00,1.150888214111328125e+02
4.440000057220458984e+00,1.169375228881835938e+02
4.480000019073486328e+00,1.188065948486328125e+02
4.519999980926513672e+00,1.206872940063476562e+02
4.559999942779541016e+00,1.225666961669921875e+02
4.599999904632568359e+00,1.212182617187500000e+02
4.639999866485595703e+00,1.229008331298828125e+02
4.679999828338623047e+00,1.244329528808593750e+02
4.719999790191650391e+00,1.259650268554687500e+02
4.759999752044677734e+00,1.274978027343750000e+02
4.799999713897705078e+00,1.290305938720703125e+02
4.840000152587890625e+00,1.305559997558593750e+02
4.880000114440917969e+00,1.320786437988281250e+02
4.920000076293945312e+00,1.321255035400390625e+02
4.960000038146972656e+00,1.336471557617187500e+02
5.000000000000000000e+00,1.351330413818359375e+02
5.039999961853027344e+00,1.366968688964843750e+02
5.079999923706054688e+00,1.381570892333984375e+02
5.119999885559082031e+00,1.396145172119140625e+02
5.159999847412109375e+00,1.410683593750000000e+02
5.199999809265136719e+00,1.425163116455078125e+02
5.239999771118164062e+00,1.439596710205078125e+02
5.279999732971191406e+00,1.454028015136718750e+02
5.320000171661376953e+00,1.468443603515625000e+02
5.360000133514404297e+00,1.482856750488281250e+02
5.400000095367431641e+00,1.497234344482421875e+02
5.440000057220458984e+00,1.511562805175781250e+02
5.480000019073486328e+00,1.525877532958984375e+02
5.519999980926513672e+00,1.540186462402343750e+02
5.559999942779541016e+00,1.553418884277343750e+02
5.599999904632568359e+00,1.565510711669921875e+02
5.639999866485595703e+00,1.577552032470703125e+02
5.679999828338623047e+00,1.589558258056640625e+02
5.719999790191650391e+00,1.601521301269531250e+02
5.759999752044677734e+00,1.613450317382812500e+02
5.799999713897705078e+00,1.625205078125000000e+02
5.839999675750732422e+00,1.636794128417968750e+02
5.879999637603759766e+00,1.648347778320312500e+02
5.919999599456787109e+00,1.659888763427734375e+02
5.960000038146972656e+00,1.671393585205078125e+02
6.000000000000000000e+00,1.681983032226562500e+02
6.039999961853027344e+00,1.691637268066406250e+02
6.079999923706054688e+00,1.701241302490234375e+02
6.119999885559082031e+00,1.709967498779296875e+02
6.159999847412109375e+00,1.718087463378906250e+02
6.199999809265136719e+00,1.726212005615234375e+02
6.239999771118164062e+00,1.734345092773437500e+02
6.279999732971191406e+00,1.742425994873046875e+02
6.319999694824218750e+00,1.750448760986328125e+02
6.359999656677246094e+00,1.758419189453125000e+02
6.399999618530273438e+00,1.766289520263671875e+02
6.439999580383300781e+00,1.774062042236328125e+02
6.480000019073486328e+00,1.781785430908203125e+02
6.519999980926513672e+00,1.789488983154296875e+02
6.559999942779541016e+00,1.797145996093750000e+02
6.599999904632568359e+00,1.804707946777343750e+02
6.639999866485595703e+00,1.812174835205078125e+02
6.679999828338623047e+00,1.819598083496093750e+02
6.719999790191650391e+00,1.826593170166015625e+02
6.759999752044677734e+00,1.832759857177734375e+02
6.799999713897705078e+00,1.838782501220703125e+02
6.839999675750732422e+00,1.844664001464843750e+02
6.879999637603759766e+00,1.850499725341796875e+02
6.919999599456787109e+00,1.856259002685546875e+02
6.959999561309814453e+00,1.861973724365234375e+02
7.000000000000000000e+00,1.867245635986328125e+02
7.039999961853027344e+00,1.872070922851562500e+02
7.079999923706054688e+00,1.876861877441406250e+02
7.119999885559082031e+00,1.871899719238281250e+02
7.159999847412109375e+00,1.876765747070312500e+02
7.199999809265136719e+00,1.881591796875000000e+02
7.239999771118164062e+00,1.886383972167968750e+02
7.279999732971191406e+00,1.891136474609375000e+02
7.319999694824218750e+00,1.895415496826171875e+02
7.359999656677246094e+00,1.899653015136718750e+02
7.399999618530273438e+00,1.903718261718750000e+02
7.439999580383300781e+00,1.907611999511718750e+02
7.479999542236328125e+00,1.911467895507812500e+02
7.519999980926513672e+00,1.915710754394531250e+02
7.559999942779541016e+00,1.919917144775390625e+02
7.599999904632568359e+00,1.923908386230468750e+02
7.639999866485595703e+00,1.927681121826171875e+02
7.679999828338623047e+00,1.931419372558593750e+02
7.719999790191650391e+00,1.935113525390625000e+02
7.759999752044677734e+00,1.938777160644531250e+02
7.799999713897705078e+00,1.942157897949218750e+02
7.839999675750732422e+00,1.945249786376953125e+02
7.879999637603759766e+00,1.948307952880859375e+02
7.919999599456787109e+00,1.951335449218750000e+02
7.959999561309814453e+00,1.954328613281250000e+02
7.999999523162841797e+00,1.956768493652343750e+02
8.039999961853027344e+00,1.958654022216796875e+02
8.079999923706054688e+00,1.960505981445312500e+02
8.119999885559082031e+00,1.962316131591796875e+02
8.159999847412109375e+00,1.963563842773437500e+02
8.199999809265136719e+00,1.964427795410156250e+02
8.239999771118164062e+00,1.965282592773437500e+02
8.279999732971191406e+00,1.967223052978515625e+02
8.319999694824218750e+00,1.969147949218750000e+02
8.359999656677246094e+00,1.971041870117187500e+02
8.399999618530273438e+00,1.972585906982421875e+02
8.439999580383300781e+00,1.973782653808593750e+02
8.479999542236328125e+00,1.974946594238281250e+02
8.520000457763671875e+00,1.976072387695312500e+02
8.560000419616699219e+00,1.977165679931640625e+02
8.600000381469726562e+00,1.977928771972656250e+02
8.640000343322753906e+00,1.978358764648437500e+02
8.680000305175781250e+00,1.978756103515625000e+02
8.720000267028808594e+00,1.979556274414062500e+02
8.760000228881835938e+00,1.980324859619140625e+02
8.800000190734863281e+00,1.980808410644531250e+02
8.840000152587890625e+00,1.981006469726562500e+02
8.880000114440917969e+00,1.981171112060546875e+02
8.920000076293945312e+00,1.981074371337890625e+02
8.960000038146972656e+00,1.980657043457031250e+02
9.000000000000000000e+00,1.979812316894531250e+02
9.039999961853027344e+00,1.978699951171875000e+02
9.079999923706054688e+00,1.977555694580078125e+02
9.119999885559082031e+00,1.976891479492187500e+02
9.159999847412109375e+00,1.977466583251953125e+02
9.199999809265136719e+00,1.977749938964843750e+02
9.239999771118164062e+00,1.977740173339843750e+02
9.279999732971191406e+00,1.977694702148437500e+02
9.319999694824218750e+00,1.977581939697265625e+02
9.359999656677246094e+00,1.977433624267578125e+02
9.399999618530273438e+00,1.976889648437500000e+02
9.439999580383300781e+00,1.975949401855468750e+02
9.479999542236328125e+00,1.974972686767578125e+02
9.519999504089355469e+00,1.974419708251953125e+02
9.560000419616699219e+00,1.973831939697265625e+02
9.600000381469726562e+00,1.971805114746093750e+02
9.640000343322753906e+00,1.968745117187500000e+02
9.680000305175781250e+00,1.966871337890625000e+02
9.720000267028808594e+00,1.964710083007812500e+02
9.760000228881835938e+00,1.962510833740234375e+02
9.800000190734863281e+00,1.957132720947265625e+02
9.840000152587890625e+00,1.948511962890625000e+02
9.880000114440917969e+00,1.939661712646484375e+02
9.920000076293945312e+00,1.930797424316406250e+02
9.960000038146972656e+00,1.923457794189453125e+02
1.000000000000000000e+01,1.895666809082031250e+02
1.003999996185302734e+01,1.846434631347656250e+02
1.007999992370605469e+01,1.797318420410156250e+02
1.011999988555908203e+01,1.748337860107421875e+02
1.015999984741210938e+01,1.699487762451171875e+02
1.019999980926513672e+01,1.646228027343750000e+02
1.023999977111816406e+01,1.647913055419921875e+02
1.027999973297119141e+01,1.649545288085937500e+02
1.032000064849853516e+01,1.651294403076171875e+02
1.036000061035156250e+01,1.652993621826171875e+02
1.040000057220458984e+01,1.661016082763671875e+02
1.044000053405761719e+01,1.672991638183593750e+02
1.048000049591064453e+01,1.677567596435546875e+02
1.052000045776367188e+01,1.681904449462890625e+02
1.056000041961669922e+01,1.686204833984375000e+02
1.060000038146972656e+01,1.685897369384765625e+02
1.064000034332275391e+01,1.681005096435546875e+02
1.068000030517578125e+01,1.676099548339843750e+02
1.072000026702880859e+01,1.671199645996093750e+02
1.076000022888183594e+01,1.666288909912109375e+02
1.080000019073486328e+01,1.660455474853515625e+02
1.084000015258789062e+01,1.653590850830078125e+02
1.088000011444091797e+01,1.646670074462890625e+02
1.092000007629394531e+01,1.639576263427734375e+02
1.096000003814697266e+01,1.632485656738281250e+02
1.100000000000000000e+01,1.624532318115234375e+02
1.103999996185302734e+01,1.615723419189453125e+02
1.107999992370605469e+01,1.606930084228515625e+02
1.111999988555908203e+01,1.604655761718750000e+02
1.115999984741210938e+01,1.602368774414062500e+02
1.119999980926513672e+01,1.596155395507812500e+02
1.123999977111816406e+01,1.586020965576171875e+02
1.127999973297119141e+01,1.575880432128906250e+02
1.131999969482421875e+01,1.565908966064453125e+02
1.136000061035156250e+01,1.555930938720703125e+02
1.140000057220458984e+01,1.538536071777343750e+02
1.144000053405761719e+01,1.513713378906250000e+02
1.148000049591064453e+01,1.488865203857421875e+02
1.152000045776367188e+01,1.462690582275390625e+02
1.156000041961669922e+01,1.398326721191406250e+02
1.160000038146972656e+01,1.379756164550781250e+02
1.164000034332275391e+01,1.374211578369140625e+02
1.168000030517578125e+01,1.368630828857421875e+02
1.172000026702880859e+01,1.363003997802734375e+02
1.176000022888183594e+01,1.357322845458984375e+02
1.180000019073486328e+01,1.350838928222656250e+02
1.184000015258789062e+01,1.343581848144531250e+02
1.188000011444091797e+01,1.336329040527343750e+02
1.192000007629394531e+01,1.329164733886718750e+02
1.196000003814697266e+01,1.321959686279296875e+02
1.200000000000000000e+01,1.313776092529296875e+02
1.203999996185302734e+01,1.304620361328125000e+02
1.207999992370605469e+01,1.298275756835937500e+02
1.211999988555908203e+01,1.299847106933593750e+02
1.215999984741210938e+01,1.301412353515625000e+02
1.219999980926513672e+01,1.302373504638671875e+02
1.223999977111816406e+01,1.302728576660156250e+02
1.227999973297119141e+01,1.303077545166015625e+02
1.231999969482421875e+01,1.303542938232421875e+02
1.236000061035156250e+01,1.304003143310546875e+02
1.240000057220458984e+01,1.303614959716796875e+02
1.244000053405761719e+01,1.302382507324218750e+02
1.248000049591064453e+01,1.301143341064453125e+02
1.252000045776367188e+01,1.299760894775390625e+02
1.256000041961669922e+01,1.298374633789062500e+02
1.260000038146972656e+01,1.296526031494140625e+02
1.264000034332275391e+01,1.294216766357421875e+02
1.268000030517578125e+01,1.291904754638671875e+02
1.272000026702880859e+01,1.289472656250000000e+02
1.276000022888183594e+01,1.287036590576171875e+02
1.280000019073486328e+01,1.284311370849609375e+02
1.284000015258789062e+01,1.281297302246093750e+02
1.288000011444091797e+01,1.278285522460937500e+02
1.292000007629394531e+01,1.275533065795898438e+02
1.296000003814697266e+01,1.272777633666992188e+02
1.300000000000000000e+01,1.268764419555664062e+02
1.303999996185302734e+01,1.263496704101562500e+02
1.307999992370605469e+01,1.258233108520507812e+02
1.311999988555908203e+01,1.252776641845703125e+02
1.315999984741210938e+01,1.247309112548828125e+02
1.319999980926513672e+01,1.241143951416015625e+02
1.323999977111816406e+01,1.234288101196289062e+02
1.327999973297119141e+01,1.227056732177734375e+02
1.331999969482421875e+01,1.208653869628906250e+02
1.335999965667724609e+01,1.202068328857421875e+02
1.340000057220458984e+01,1.197494964599609375e+02
1.344000053405761719e+01,1.194416503906250000e+02
1.348000049591064453e+01,1.191333541870117188e+02
1.352000045776367188e+01,1.188248367309570312e+02
1.356000041961669922e+01,1.185160064697265625e+02
1.360000038146972656e+01,1.181673812866210938e+02
1.364000034332275391e+01,1.177792816162109375e+02
1.368000030517578125e+01,1.173905868530273438e+02
1.372000026702880859e+01,1.170017242431640625e+02
1.376000022888183594e+01,1.166125411987304688e+02
1.380000019073486328e+01,1.161926651000976562e+02
1.384000015258789062e+01,1.153431701660156250e+02
1.388000011444091797e+01,1.148991851806640625e+02
1.392000007629394531e+01,1.146726837158203125e+02
1.396000003814697266e+01,1.144465179443359375e+02
1.400000000000000000e+01,1.142420883178710938e+02
1.403999996185302734e+01,1.140594253540039062e+02
1.407999992370605469e+01,1.138763351440429688e+02
1.411999988555908203e+01,1.136794052124023438e+02
1.415999984741210938e+01,1.134821319580078125e+02
1.419999980926513672e+01,1.132812881469726562e+02
1.423999977111816406e+01,1.130768508911132812e+02
1.427999973297119141e+01,1.128721084594726562e+02
1.431999969482421875e+01,1.126667709350585938e+02
1.435999965667724609e+01,1.124611816406250000e+02
1.439999961853027344e+01,1.122427902221679688e+02
1.444000053405761719e+01,1.120081176757812500e+02
1.448000049591064453e+01,1.117734298706054688e+02
1.452000045776367188e+01,1.115389709472656250e+02
1.456000041961669922e+01,1.113042831420898438e+02
1.460000038146972656e+01,1.110670318603515625e+02
1.464000034332275391e+01,1.108271484375000000e+02
1.468000030517578125e+01,1.105871200561523438e+02
1.472000026702880859e+01,1.103592376708984375e+02
1.476000022888183594e+01,1.101311492919921875e+02
1.480000019073486328e+01,1.099009170532226562e+02
1.484000015258789062e+01,1.096684570312500000e+02
1.488000011444091797e+01,1.094355621337890625e+02
1.492000007629394531e+01,1.092012023925781250e+02
1.496000003814697266e+01,1.089665832519531250e+02
1.500000000000000000e+01,1.087322463989257812e+02
1.503999996185302734e+01,1.084981002807617188e+02
1.507999992370605469e+01,1.082636947631835938e+02
1.511999988555908203e+01,1.080395050048828125e+02
1.515999984741210938e+01,1.078150787353515625e+02
1.519999980926513672e+01,1.075869674682617188e+02
1.523999977111816406e+01,1.073551177978515625e+02
1.527999973297119141e+01,1.071229858398437500e+02
1.531999969482421875e+01,1.068704528808593750e+02
1.535999965667724609e+01,1.066177215576171875e+02
1.539999961853027344e+01,1.063655166625976562e+02
1.544000053405761719e+01,1.061138687133789062e+02
1.548000049591064453e+01,1.058620300292968750e+02
1.552000045776367188e+01,1.056207275390625000e+02
1.556000041961669922e+01,1.053791351318359375e+02
1.560000038146972656e+01,1.051436767578125000e+02
1.564000034332275391e+01,1.049143218994140625e+02
1.568000030517578125e+01,1.046846618652343750e+02
1.572000026702880859e+01,1.044626007080078125e+02
1.576000022888183594e+01,1.042403030395507812e+02
1.580000019073486328e+01,1.040116806030273438e+02
1.584000015258789062e+01,1.037766799926757812e+02
1.588000011444091797e+01,1.035392837524414062e+02
1.592000007629394531e+01,1.032999649047851562e+02
1.596000003814697266e+01,1.030603256225585938e+02
1.600000000000000000e+01,1.028183364868164062e+02
1.603999900817871094e+01,1.025740356445312500e+02
1.607999992370605469e+01,1.023294448852539062e+02
1.611999893188476562e+01,1.021175689697265625e+02
1.615999984741210938e+01,1.019051895141601562e+02
1.619999885559082031e+01,1.016923751831054688e+02
1.623999977111816406e+01,1.014790573120117188e+02
1.627999877929687500e+01,1.012653121948242188e+02
1.631999969482421875e+01,1.009981765747070312e+02
1.635999870300292969e+01,1.007308731079101562e+02
1.639999961853027344e+01,1.004634017944335938e+02
1.643999862670898438e+01,1.001957855224609375e+02
1.647999954223632812e+01,9.992793273925781250e+01
1.652000045776367188e+01,9.968360900878906250e+01
1.655999946594238281e+01,9.943905639648437500e+01
1.660000038146972656e+01,9.919423675537109375e+01
1.663999938964843750e+01,9.894912719726562500e+01
1.668000030517578125e+01,9.870377349853515625e+01
1.671999931335449219e+01,9.845865631103515625e+01
1.676000022888183594e+01,9.821323394775390625e+01
1.679999923706054688e+01,9.796755981445312500e+01
1.684000015258789062e+01,9.772161102294921875e+01
1.687999916076660156e+01,9.747539520263671875e+01
1.692000007629394531e+01,9.721959686279296875e+01
1.695999908447265625e+01,9.696361541748046875e+01
1.700000000000000000e+01,9.670563507080078125e+01
1.703999900817871094e+01,9.644563293457031250e+01
1.707999992370605469e+01,9.618553161621093750e+01
1.711999893188476562e+01,9.596368408203125000e+01
1.715999984741210938e+01,9.574150848388671875e+01
1.719999885559082031e+01,9.551913452148437500e+01
1.723999977111816406e+01,9.529647827148437500e+01
1.727999877929687500e+01,9.503166198730468750e+01
1.731999969482421875e+01,9.473532867431640625e+01
1.735999870300292969e+01,9.443921661376953125e+01
1.739999961853027344e+01,9.414318847656250000e+01
1.743999862670898438e+01,9.384695434570312500e+01
1.747999954223632812e+01,9.354981231689453125e+01
