# Start of Energy Bin (keV), Effective Area (cm^2)
1.600000023841857910e+00,5.729710459709167480e-01
1.639999985694885254e+00,7.935271859169006348e-01
1.680000066757202148e+00,1.095145344734191895e+00
1.720000028610229492e+00,1.506457090377807617e+00
1.759999990463256836e+00,2.035750865936279297e+00
1.799999952316284180e+00,2.561535358428955078e+00
1.840000033378601074e+00,1.418283343315124512e+00
1.879999995231628418e+00,1.806145906448364258e+00
1.920000076293945312e+00,2.352513313293457031e+00
1.960000038146972656e+00,2.961805820465087891e+00
2.000000000000000000e+00,3.660758972167968750e+00
2.039999961853027344e+00,4.484161376953125000e+00
2.079999923706054688e+00,5.485370159149169922e+00
2.119999885559082031e+00,4.994057178497314453e+00
2.160000085830688477e+00,5.796247959136962891e+00
2.200000047683715820e+00,6.044474601745605469e+00
2.240000009536743164e+00,6.917921543121337891e+00
2.279999971389770508e+00,7.939821243286132812e+00
2.319999933242797852e+00,9.196527481079101562e+00
2.360000133514404297e+00,1.041595935821533203e+01
2.400000095367431641e+00,1.158446502685546875e+01
2.440000057220458984e+00,1.290758132934570312e+01
2.480000019073486328e+00,1.445366382598876953e+01
2.519999980926513672e+00,1.631558227539062500e+01
2.559999942779541016e+00,1.836116600036621094e+01
2.599999904632568359e+00,2.021328926086425781e+01
2.639999866485595703e+00,2.059669685363769531e+01
2.679999828338623047e+00,2.245078849792480469e+01
2.720000028610229492e+00,2.445098114013671875e+01
2.759999990463256836e+00,2.661473464965820312e+01
2.799999952316284180e+00,2.894527053833007812e+01
2.840000152587890625e+00,3.135354042053222656e+01
2.880000114440917969e+00,3.342843627929687500e+01
2.920000076293945312e+00,3.559240722656250000e+01
2.960000038146972656e+00,3.788440704345703125e+01
3.000000000000000000e+00,4.036759185791015625e+01
3.039999961853027344e+00,4.182943725585937500e+01
3.079999923706054688e+00,4.437285614013671875e+01
3.119999885559082031e+00,4.701753234863281250e+01
3.159999847412109375e+00,4.922274780273437500e+01
3.199999809265136719e+00,5.150210952758789062e+01
3.240000009536743164e+00,5.385910797119140625e+01
3.279999971389770508e+00,5.554937744140625000e+01
3.319999933242797852e+00,5.860951232910156250e+01
3.360000133514404297e+00,6.181538391113281250e+01
3.400000095367431641e+00,6.516133117675781250e+01
3.440000057220458984e+00,6.773532104492187500e+01
3.480000019073486328e+00,6.960063934326171875e+01
3.519999980926513672e+00,6.754380798339843750e+01
3.559999942779541016e+00,6.940187072753906250e+01
3.599999904632568359e+00,7.132500457763671875e+01
3.639999866485595703e+00,7.327400207519531250e+01
3.679999828338623047e+00,7.525210571289062500e+01
3.719999790191650391e+00,7.518912506103515625e+01
3.759999752044677734e+00,7.722780609130859375e+01
3.800000190734863281e+00,7.900856781005859375e+01
3.840000152587890625e+00,8.060825347900390625e+01
3.880000114440917969e+00,8.221252441406250000e+01
3.920000076293945312e+00,8.425390625000000000e+01
3.960000038146972656e+00,8.646162414550781250e+01
4.000000000000000000e+00,8.756636047363281250e+01
4.039999961853027344e+00,8.973143005371093750e+01
4.079999923706054688e+00,9.192420959472656250e+01
4.119999885559082031e+00,9.412274169921875000e+01
4.159999847412109375e+00,9.632296752929687500e+01
4.199999809265136719e+00,9.820819091796875000e+01
4.239999771118164062e+00,1.001046447753906250e+02
4.279999732971191406e+00,1.020172882080078125e+02
4.320000171661376953e+00,1.001311798095703125e+02
4.360000133514404297e+00,1.006517791748046875e+02
4.400000095367431641e+00,1.022957763671875000e+02
4.440000057220458984e+00,1.039497070312500000e+02
4.480000019073486328e+00,1.056221008300781250e+02
4.519999980926513672e+00,1.073094406127929688e+02
4.559999942779541016e+00,1.089961395263671875e+02
4.599999904632568359e+00,1.078126068115234375e+02
4.639999866485595703e+00,1.093250961303710938e+02
4.679999828338623047e+00,1.107041931152343750e+02
4.719999790191650391e+00,1.120846633911132812e+02
4.759999752044677734e+00,1.134662322998046875e+02
4.799999713897705078e+00,1.148483886718750000e+02
4.840000152587890625e+00,1.162245941162109375e+02
4.880000114440917969e+00,1.175988159179687500e+02
4.920000076293945312e+00,1.176630096435546875e+02
4.960000038146972656e+00,1.190408477783203125e+02
5.000000000000000000e+00,1.203875503540039062e+02
5.039999961853027344e+00,1.218032531738281250e+02
5.079999923706054688e+00,1.231263580322265625e+02
5.119999885559082031e+00,1.244397583007812500e+02
5.159999847412109375e+00,1.257502288818359375e+02
5.199999809265136719e+00,1.270559082031250000e+02
5.239999771118164062e+00,1.283579711914062500e+02
5.279999732971191406e+00,1.296600952148437500e+02
5.320000171661376953e+00,1.309611206054687500e+02
5.360000133514404297e+00,1.322622222900390625e+02
5.400000095367431641e+00,1.335606689453125000e+02
5.440000057220458984e+00,1.348552093505859375e+02
5.480000019073486328e+00,1.361488037109375000e+02
5.519999980926513672e+00,1.374510498046875000e+02
5.559999942779541016e+00,1.386576232910156250e+02
5.599999904632568359e+00,1.397630615234375000e+02
5.639999866485595703e+00,1.408646087646484375e+02
5.679999828338623047e+00,1.419634399414062500e+02
5.719999790191650391e+00,1.430529479980468750e+02
5.759999752044677734e+00,1.441396789550781250e+02
5.799999713897705078e+00,1.452116546630859375e+02
5.839999675750732422e+00,1.462696380615234375e+02
5.879999637603759766e+00,1.473247222900390625e+02
5.919999599456787109e+00,1.483721008300781250e+02
5.960000038146972656e+00,1.494164733886718750e+02
6.000000000000000000e+00,1.503769531250000000e+02
6.039999961853027344e+00,1.512517089843750000e+02
6.079999923706054688e+00,1.521221313476562500e+02
6.119999885559082031e+00,1.529270324707031250e+02
6.159999847412109375e+00,1.536779937744140625e+02
6.199999809265136719e+00,1.544299316406250000e+02
6.239999771118164062e+00,1.551831817626953125e+02
6.279999732971191406e+00,1.559320068359375000e+02
6.319999694824218750e+00,1.566704711914062500e+02
6.359999656677246094e+00,1.574043884277343750e+02
6.399999618530273438e+00,1.581302947998046875e+02
6.439999580383300781e+00,1.588483123779296875e+02
6.480000019073486328e+00,1.595621185302734375e+02
6.519999980926513672e+00,1.602731933593750000e+02
6.559999942779541016e+00,1.609802856445312500e+02
6.599999904632568359e+00,1.616799468994140625e+02
6.639999866485595703e+00,1.623722076416015625e+02
6.679999828338623047e+00,1.630607604980468750e+02
6.719999790191650391e+00,1.637295227050781250e+02
6.759999752044677734e+00,1.643243103027343750e+02
6.799999713897705078e+00,1.649080200195312500e+02
6.839999675750732422e+00,1.654808654785156250e+02
6.879999637603759766e+00,1.660499572753906250e+02
6.919999599456787109e+00,1.665759582519531250e+02
6.959999561309814453e+00,1.670980529785156250e+02
7.000000000000000000e+00,1.675862274169921875e+02
7.039999961853027344e+00,1.680402069091796875e+02
7.079999923706054688e+00,1.684912109375000000e+02
7.119999885559082031e+00,1.680684967041015625e+02
7.159999847412109375e+00,1.685281829833984375e+02
7.199999809265136719e+00,1.689902191162109375e+02
7.239999771118164062e+00,1.694552001953125000e+02
7.279999732971191406e+00,1.699167785644531250e+02
7.319999694824218750e+00,1.703687438964843750e+02
7.359999656677246094e+00,1.708173065185546875e+02
7.399999618530273438e+00,1.712550659179687500e+02
7.439999580383300781e+00,1.716820373535156250e+02
7.479999542236328125e+00,1.721059722900390625e+02
7.519999980926513672e+00,1.725497894287109375e+02
7.559999942779541016e+00,1.729906463623046875e+02
7.599999904632568359e+00,1.734211120605468750e+02
7.639999866485595703e+00,1.738409729003906250e+02
7.679999828338623047e+00,1.742581176757812500e+02
7.719999790191650391e+00,1.746545867919921875e+02
7.759999752044677734e+00,1.750485839843750000e+02
7.799999713897705078e+00,1.754313049316406250e+02
7.839999675750732422e+00,1.758023529052734375e+02
7.879999637603759766e+00,1.761707153320312500e+02
7.919999599456787109e+00,1.765337524414062500e+02
7.959999561309814453e+00,1.768940734863281250e+02
7.999999523162841797e+00,1.772184753417968750e+02
8.039999961853027344e+00,1.775068664550781250e+02
8.079999923706054688e+00,1.777926788330078125e+02
8.119999885559082031e+00,1.780758361816406250e+02
8.159999847412109375e+00,1.783083801269531250e+02
8.199999809265136719e+00,1.785176544189453125e+02
8.239999771118164062e+00,1.787263641357421875e+02
8.279999732971191406e+00,1.790002441406250000e+02
8.319999694824218750e+00,1.792776641845703125e+02
8.359999656677246094e+00,1.795528564453125000e+02
8.399999618530273438e+00,1.797949829101562500e+02
8.439999580383300781e+00,1.800043334960937500e+02
8.479999542236328125e+00,1.802112426757812500e+02
8.520000457763671875e+00,1.804172363281250000e+02
8.560000419616699219e+00,1.806208190917968750e+02
8.600000381469726562e+00,1.807846527099609375e+02
8.640000343322753906e+00,1.809084014892578125e+02
8.680000305175781250e+00,1.810296936035156250e+02
8.720000267028808594e+00,1.811444702148437500e+02
8.760000228881835938e+00,1.812568359375000000e+02
8.800000190734863281e+00,1.813314819335937500e+02
8.840000152587890625e+00,1.813682403564453125e+02
8.880000114440917969e+00,1.814023742675781250e+02
8.920000076293945312e+00,1.814380493164062500e+02
8.960000038146972656e+00,1.814447784423828125e+02
9.000000000000000000e+00,1.814019775390625000e+02
9.039999961853027344e+00,1.813242340087890625e+02
9.079999923706054688e+00,1.812438812255859375e+02
9.119999885559082031e+00,1.812066955566406250e+02
9.159999847412109375e+00,1.812467041015625000e+02
9.199999809265136719e+00,1.812531280517578125e+02
9.239999771118164062e+00,1.812257995605468750e+02
9.279999732971191406e+00,1.811956939697265625e+02
9.319999694824218750e+00,1.811408386230468750e+02
9.359999656677246094e+00,1.810832366943359375e+02
9.399999618530273438e+00,1.809860076904296875e+02
9.439999580383300781e+00,1.808491516113281250e+02
9.479999542236328125e+00,1.807095947265625000e+02
9.519999504089355469e+00,1.805933837890625000e+02
9.560000419616699219e+00,1.804745788574218750e+02
9.600000381469726562e+00,1.802246093750000000e+02
9.640000343322753906e+00,1.798807373046875000e+02
9.680000305175781250e+00,1.796459960937500000e+02
9.720000267028808594e+00,1.793856048583984375e+02
9.760000228881835938e+00,1.791224365234375000e+02
9.800000190734863281e+00,1.785810089111328125e+02
9.840000152587890625e+00,1.777559204101562500e+02
9.880000114440917969e+00,1.769112091064453125e+02
9.920000076293945312e+00,1.760872039794921875e+02
9.960000038146972656e+00,1.754693298339843750e+02
1.000000000000000000e+01,1.730722503662109375e+02
1.003999996185302734e+01,1.687525024414062500e+02
1.007999992370605469e+01,1.644358062744140625e+02
1.011999988555908203e+01,1.601228027343750000e+02
1.015999984741210938e+01,1.558141021728515625e+02
1.019999980926513672e+01,1.511002349853515625e+02
1.023999977111816406e+01,1.512321166992187500e+02
1.027999973297119141e+01,1.513589630126953125e+02
1.032000064849853516e+01,1.514889831542968750e+02
1.036000061035156250e+01,1.516142425537109375e+02
1.040000057220458984e+01,1.523141937255859375e+02
1.044000053405761719e+01,1.533719635009765625e+02
1.048000049591064453e+01,1.537537231445312500e+02
1.052000045776367188e+01,1.541014862060546875e+02
1.056000041961669922e+01,1.544460601806640625e+02
1.060000038146972656e+01,1.543991088867187500e+02
1.064000034332275391e+01,1.539627990722656250e+02
1.068000030517578125e+01,1.535255432128906250e+02
1.072000026702880859e+01,1.530902557373046875e+02
1.076000022888183594e+01,1.526542205810546875e+02
1.080000019073486328e+01,1.521425933837890625e+02
1.084000015258789062e+01,1.515453796386718750e+02
1.088000011444091797e+01,1.509430847167968750e+02
1.092000007629394531e+01,1.503496398925781250e+02
1.096000003814697266e+01,1.497563781738281250e+02
1.100000000000000000e+01,1.490920715332031250e+02
1.103999996185302734e+01,1.483571472167968750e+02
1.107999992370605469e+01,1.476232757568359375e+02
1.111999988555908203e+01,1.474749755859375000e+02
1.115999984741210938e+01,1.473253784179687500e+02
1.119999980926513672e+01,1.468423461914062500e+02
1.123999977111816406e+01,1.460256347656250000e+02
1.127999973297119141e+01,1.452072601318359375e+02
1.131999969482421875e+01,1.444023132324218750e+02
1.136000061035156250e+01,1.435956573486328125e+02
1.140000057220458984e+01,1.420800628662109375e+02
1.144000053405761719e+01,1.398537597656250000e+02
1.148000049591064453e+01,1.376230621337890625e+02
1.152000045776367188e+01,1.352500610351562500e+02
1.156000041961669922e+01,1.292727050781250000e+02
1.160000038146972656e+01,1.275395812988281250e+02
1.164000034332275391e+01,1.270225677490234375e+02
1.168000030517578125e+01,1.265022430419921875e+02
1.172000026702880859e+01,1.259781799316406250e+02
1.176000022888183594e+01,1.254491043090820312e+02
1.180000019073486328e+01,1.248590545654296875e+02
1.184000015258789062e+01,1.242106323242187500e+02
1.188000011444091797e+01,1.235624542236328125e+02
1.192000007629394531e+01,1.229261474609375000e+02
1.196000003814697266e+01,1.222859420776367188e+02
1.200000000000000000e+01,1.215536041259765625e+02
1.203999996185302734e+01,1.207297058105468750e+02
1.207999992370605469e+01,1.201515121459960938e+02
1.211999988555908203e+01,1.202683181762695312e+02
1.215999984741210938e+01,1.203843994140625000e+02
1.219999980926513672e+01,1.204516372680664062e+02
1.223999977111816406e+01,1.204698486328125000e+02
1.227999973297119141e+01,1.204874572753906250e+02
1.231999969482421875e+01,1.204980163574218750e+02
1.236000061035156250e+01,1.205080718994140625e+02
1.240000057220458984e+01,1.204436645507812500e+02
1.244000053405761719e+01,1.203052368164062500e+02
1.248000049591064453e+01,1.201662445068359375e+02
1.252000045776367188e+01,1.200451431274414062e+02
1.256000041961669922e+01,1.199236907958984375e+02
1.260000038146972656e+01,1.197588500976562500e+02
1.264000034332275391e+01,1.195507965087890625e+02
1.268000030517578125e+01,1.193424530029296875e+02
1.272000026702880859e+01,1.191330718994140625e+02
1.276000022888183594e+01,1.189233093261718750e+02
1.280000019073486328e+01,1.186848220825195312e+02
1.284000015258789062e+01,1.184176483154296875e+02
1.288000011444091797e+01,1.181506652832031250e+02
1.292000007629394531e+01,1.178710174560546875e+02
1.296000003814697266e+01,1.175912094116210938e+02
1.300000000000000000e+01,1.171902770996093750e+02
1.303999996185302734e+01,1.166686401367187500e+02
1.307999992370605469e+01,1.161476821899414062e+02
1.311999988555908203e+01,1.156246337890625000e+02
1.315999984741210938e+01,1.151007156372070312e+02
1.319999980926513672e+01,1.145073165893554688e+02
1.323999977111816406e+01,1.138451538085937500e+02
1.327999973297119141e+01,1.131397552490234375e+02
1.331999969482421875e+01,1.114001312255859375e+02
1.335999965667724609e+01,1.107377166748046875e+02
1.340000057220458984e+01,1.102661590576171875e+02
1.344000053405761719e+01,1.099418258666992188e+02
1.348000049591064453e+01,1.096172866821289062e+02
1.352000045776367188e+01,1.093177261352539062e+02
1.356000041961669922e+01,1.090179595947265625e+02
1.360000038146972656e+01,1.086801910400390625e+02
1.364000034332275391e+01,1.083047485351562500e+02
1.368000030517578125e+01,1.079288330078125000e+02
1.372000026702880859e+01,1.075446777343750000e+02
1.376000022888183594e+01,1.071603698730468750e+02
1.380000019073486328e+01,1.067463684082031250e+02
1.384000015258789062e+01,1.059363403320312500e+02
1.388000011444091797e+01,1.055082321166992188e+02
1.392000007629394531e+01,1.052664184570312500e+02
1.396000003814697266e+01,1.050250701904296875e+02
1.400000000000000000e+01,1.048058624267578125e+02
1.403999996185302734e+01,1.046087951660156250e+02
1.407999992370605469e+01,1.044114532470703125e+02
1.411999988555908203e+01,1.042127456665039062e+02
1.415999984741210938e+01,1.040138015747070312e+02
1.419999980926513672e+01,1.038123931884765625e+02
1.423999977111816406e+01,1.036085128784179688e+02
1.427999973297119141e+01,1.034044189453125000e+02
1.431999969482421875e+01,1.032021179199218750e+02
1.435999965667724609e+01,1.029996337890625000e+02
1.439999961853027344e+01,1.027859191894531250e+02
1.444000053405761719e+01,1.025578002929687500e+02
1.448000049591064453e+01,1.023297119140625000e+02
1.452000045776367188e+01,1.021072540283203125e+02
1.456000041961669922e+01,1.018846282958984375e+02
1.460000038146972656e+01,1.016597824096679688e+02
1.464000034332275391e+01,1.014326400756835938e+02
1.468000030517578125e+01,1.012053985595703125e+02
1.472000026702880859e+01,1.009828948974609375e+02
1.476000022888183594e+01,1.007602539062500000e+02
1.480000019073486328e+01,1.005360260009765625e+02
1.484000015258789062e+01,1.003101501464843750e+02
1.488000011444091797e+01,1.000839385986328125e+02
1.492000007629394531e+01,9.983706665039062500e+01
1.496000003814697266e+01,9.959014129638671875e+01
1.500000000000000000e+01,9.934326171875000000e+01
1.503999996185302734e+01,9.909636688232421875e+01
1.507999992370605469e+01,9.884938049316406250e+01
1.511999988555908203e+01,9.861763000488281250e+01
1.515999984741210938e+01,9.838578033447265625e+01
1.519999980926513672e+01,9.815093994140625000e+01
1.523999977111816406e+01,9.791312408447265625e+01
1.527999973297119141e+01,9.767517089843750000e+01
1.531999969482421875e+01,9.742785644531250000e+01
1.535999965667724609e+01,9.718046569824218750e+01
1.539999961853027344e+01,9.693357849121093750e+01
1.544000053405761719e+01,9.668719482421875000e+01
1.548000049591064453e+01,9.644073486328125000e+01
1.552000045776367188e+01,9.620481872558593750e+01
1.556000041961669922e+01,9.596868896484375000e+01
1.560000038146972656e+01,9.573831176757812500e+01
1.564000034332275391e+01,9.551362609863281250e+01
1.568000030517578125e+01,9.528874206542968750e+01
1.572000026702880859e+01,9.508694458007812500e+01
1.576000022888183594e+01,9.488510894775390625e+01
1.580000019073486328e+01,9.467800140380859375e+01
1.584000015258789062e+01,9.446555328369140625e+01
1.588000011444091797e+01,9.425093078613281250e+01
1.592000007629394531e+01,9.403125762939453125e+01
1.596000003814697266e+01,9.381129455566406250e+01
1.600000000000000000e+01,9.359127044677734375e+01
1.603999900817871094e+01,9.337117004394531250e+01
1.607999992370605469e+01,9.315079498291015625e+01
1.611999893188476562e+01,9.292726898193359375e+01
1.615999984741210938e+01,9.270343017578125000e+01
1.619999885559082031e+01,9.247937011718750000e+01
1.623999977111816406e+01,9.225499725341796875e+01
1.627999877929687500e+01,9.203040313720703125e+01
1.631999969482421875e+01,9.179789733886718750e+01
1.635999870300292969e+01,9.156517791748046875e+01
1.639999961853027344e+01,9.133226013183593750e+01
1.643999862670898438e+01,9.109915924072265625e+01
1.647999954223632812e+01,9.086580657958984375e+01
1.652000045776367188e+01,9.064459991455078125e+01
1.655999946594238281e+01,9.042318725585937500e+01
1.660000038146972656e+01,9.020155334472656250e+01
1.663999938964843750e+01,8.997969055175781250e+01
1.668000030517578125e+01,8.975757598876953125e+01
1.671999931335449219e+01,8.953084564208984375e+01
1.676000022888183594e+01,8.930389404296875000e+01
1.679999923706054688e+01,8.907672119140625000e+01
1.684000015258789062e+01,8.884934997558593750e+01
1.687999916076660156e+01,8.862176513671875000e+01
1.692000007629394531e+01,8.840843200683593750e+01
1.695999908447265625e+01,8.819485473632812500e+01
1.700000000000000000e+01,8.798109436035156250e+01
1.703999900817871094e+01,8.776715087890625000e+01
1.707999992370605469e+01,8.755303192138671875e+01
1.711999893188476562e+01,8.732458496093750000e+01
1.715999984741210938e+01,8.709602355957031250e+01
1.719999885559082031e+01,8.686746215820312500e+01
1.723999977111816406e+01,8.663883209228515625e+01
1.727999877929687500e+01,8.638221740722656250e+01
1.731999969482421875e+01,8.611965942382812500e+01
1.735999870300292969e+01,8.585729217529296875e+01
1.739999961853027344e+01,8.559501647949218750e+01
1.743999862670898438e+01,8.533254241943359375e+01
1.747999954223632812e+01,8.506922912597656250e+01
