# Start of Energy Bin (keV), Effective Area (cm^2)
1.600000023841857910e+00,1.069573536515235901e-01
1.639999985694885254e+00,1.478586643934249878e-01
1.680000066757202148e+00,2.036830484867095947e-01
1.720000028610229492e+00,2.796592712402343750e-01
1.759999990463256836e+00,3.772049248218536377e-01
1.799999952316284180e+00,4.733113944530487061e-01
1.840000033378601074e+00,2.612031102180480957e-01
1.879999995231628418e+00,3.323711454868316650e-01
1.920000076293945312e+00,4.336136281490325928e-01
1.960000038146972656e+00,5.467942953109741211e-01
2.000000000000000000e+00,6.771675944328308105e-01
2.039999961853027344e+00,8.314216136932373047e-01
2.079999923706054688e+00,1.019418239593505859e+00
2.119999885559082031e+00,9.290971755981445312e-01
2.160000085830688477e+00,1.078805685043334961e+00
2.200000047683715820e+00,1.125272989273071289e+00
2.240000009536743164e+00,1.287925601005554199e+00
2.279999971389770508e+00,1.478235840797424316e+00
2.319999933242797852e+00,1.713182449340820312e+00
2.360000133514404297e+00,1.941446304321289062e+00
2.400000095367431641e+00,2.160395860671997070e+00
2.440000057220458984e+00,2.408343791961669922e+00
2.480000019073486328e+00,2.698159694671630859e+00
2.519999980926513672e+00,3.047253370285034180e+00
2.559999942779541016e+00,3.430789709091186523e+00
2.599999904632568359e+00,3.778127908706665039e+00
2.639999866485595703e+00,3.851050853729248047e+00
2.679999828338623047e+00,4.198511123657226562e+00
2.720000028610229492e+00,4.572200775146484375e+00
2.759999990463256836e+00,4.976411819458007812e+00
2.799999952316284180e+00,5.411662101745605469e+00
2.840000152587890625e+00,5.861652374267578125e+00
2.880000114440917969e+00,6.249460697174072266e+00
2.920000076293945312e+00,6.654615879058837891e+00
2.960000038146972656e+00,7.083783149719238281e+00
3.000000000000000000e+00,7.533862113952636719e+00
3.039999961853027344e+00,7.776949405670166016e+00
3.079999923706054688e+00,8.218276977539062500e+00
3.119999885559082031e+00,8.675095558166503906e+00
3.159999847412109375e+00,9.047554969787597656e+00
3.199999809265136719e+00,9.430626869201660156e+00
3.240000009536743164e+00,9.824813842773437500e+00
3.279999971389770508e+00,1.009444713592529297e+01
3.319999933242797852e+00,1.075768089294433594e+01
3.360000133514404297e+00,1.145828151702880859e+01
3.400000095367431641e+00,1.219404888153076172e+01
3.440000057220458984e+00,1.269322586059570312e+01
3.480000019073486328e+00,1.302605438232421875e+01
3.519999980926513672e+00,1.262561607360839844e+01
3.559999942779541016e+00,1.295688247680664062e+01
3.599999904632568359e+00,1.329930114746093750e+01
3.639999866485595703e+00,1.364551544189453125e+01
3.679999828338623047e+00,1.399608135223388672e+01
3.719999790191650391e+00,1.396354293823242188e+01
3.759999752044677734e+00,1.432061386108398438e+01
3.800000190734863281e+00,1.462861919403076172e+01
3.840000152587890625e+00,1.490196800231933594e+01
3.880000114440917969e+00,1.517509269714355469e+01
3.920000076293945312e+00,1.555279541015625000e+01
3.960000038146972656e+00,1.596924877166748047e+01
4.000000000000000000e+00,1.618224525451660156e+01
4.039999961853027344e+00,1.659143829345703125e+01
4.079999923706054688e+00,1.700614356994628906e+01
4.119999885559082031e+00,1.743010902404785156e+01
4.159999847412109375e+00,1.785515022277832031e+01
4.199999809265136719e+00,1.822245979309082031e+01
4.239999771118164062e+00,1.859245872497558594e+01
4.279999732971191406e+00,1.896610260009765625e+01
4.320000171661376953e+00,1.862374305725097656e+01
4.360000133514404297e+00,1.871619987487792969e+01
4.400000095367431641e+00,1.901312828063964844e+01
4.440000057220458984e+00,1.931157493591308594e+01
4.480000019073486328e+00,1.961315917968750000e+01
4.519999980926513672e+00,1.992130279541015625e+01
4.559999942779541016e+00,2.022916030883789062e+01
4.599999904632568359e+00,2.000424003601074219e+01
4.639999866485595703e+00,2.027948951721191406e+01
4.679999828338623047e+00,2.052984046936035156e+01
4.719999790191650391e+00,2.077996826171875000e+01
4.759999752044677734e+00,2.103013992309570312e+01
4.799999713897705078e+00,2.128022575378417969e+01
4.840000152587890625e+00,2.152899932861328125e+01
4.880000114440917969e+00,2.177724838256835938e+01
4.920000076293945312e+00,2.177718353271484375e+01
4.960000038146972656e+00,2.202009773254394531e+01
5.000000000000000000e+00,2.225691604614257812e+01
5.039999961853027344e+00,2.250655364990234375e+01
5.079999923706054688e+00,2.273908805847167969e+01
5.119999885559082031e+00,2.298087501525878906e+01
5.159999847412109375e+00,2.322211647033691406e+01
5.199999809265136719e+00,2.346239852905273438e+01
5.239999771118164062e+00,2.370193862915039062e+01
5.279999732971191406e+00,2.394148635864257812e+01
5.320000171661376953e+00,2.417547225952148438e+01
5.360000133514404297e+00,2.440935707092285156e+01
5.400000095367431641e+00,2.464256477355957031e+01
5.440000057220458984e+00,2.487486267089843750e+01
5.480000019073486328e+00,2.510686683654785156e+01
5.519999980926513672e+00,2.533893203735351562e+01
5.559999942779541016e+00,2.555322456359863281e+01
5.599999904632568359e+00,2.574866294860839844e+01
5.639999866485595703e+00,2.594317054748535156e+01
5.679999828338623047e+00,2.613705825805664062e+01
5.719999790191650391e+00,2.633060455322265625e+01
5.759999752044677734e+00,2.652354812622070312e+01
5.799999713897705078e+00,2.671351242065429688e+01
5.839999675750732422e+00,2.690063476562500000e+01
5.879999637603759766e+00,2.708713150024414062e+01
5.919999599456787109e+00,2.727297401428222656e+01
5.960000038146972656e+00,2.745818138122558594e+01
6.000000000000000000e+00,2.762866401672363281e+01
6.039999961853027344e+00,2.778410530090332031e+01
6.079999923706054688e+00,2.793868827819824219e+01
6.119999885559082031e+00,2.807884788513183594e+01
6.159999847412109375e+00,2.820902824401855469e+01
6.199999809265136719e+00,2.833916854858398438e+01
6.239999771118164062e+00,2.846932983398437500e+01
6.279999732971191406e+00,2.859860610961914062e+01
6.319999694824218750e+00,2.872697257995605469e+01
6.359999656677246094e+00,2.885444068908691406e+01
6.399999618530273438e+00,2.898010063171386719e+01
6.439999580383300781e+00,2.910396385192871094e+01
6.480000019073486328e+00,2.922698593139648438e+01
6.519999980926513672e+00,2.934934616088867188e+01
6.559999942779541016e+00,2.947090530395507812e+01
6.599999904632568359e+00,2.959064102172851562e+01
6.639999866485595703e+00,2.970855712890625000e+01
6.679999828338623047e+00,2.982571220397949219e+01
6.719999790191650391e+00,2.993597793579101562e+01
6.759999752044677734e+00,3.003263473510742188e+01
6.799999713897705078e+00,3.012648773193359375e+01
6.839999675750732422e+00,3.021758270263671875e+01
6.879999637603759766e+00,3.030789184570312500e+01
6.919999599456787109e+00,3.039731597900390625e+01
6.959999561309814453e+00,3.048598289489746094e+01
7.000000000000000000e+00,3.056611251831054688e+01
7.039999961853027344e+00,3.063764190673828125e+01
7.079999923706054688e+00,3.070857238769531250e+01
7.119999885559082031e+00,3.062253379821777344e+01
7.159999847412109375e+00,3.069726371765136719e+01
7.199999809265136719e+00,3.076963043212890625e+01
7.239999771118164062e+00,3.083971214294433594e+01
7.279999732971191406e+00,3.090909194946289062e+01
7.319999694824218750e+00,3.097079849243164062e+01
7.359999656677246094e+00,3.103178024291992188e+01
7.399999618530273438e+00,3.108790969848632812e+01
7.439999580383300781e+00,3.113917541503906250e+01
7.479999542236328125e+00,3.118976402282714844e+01
7.519999980926513672e+00,3.124173736572265625e+01
7.559999942779541016e+00,3.129303550720214844e+01
7.599999904632568359e+00,3.133833885192871094e+01
7.639999866485595703e+00,3.137758064270019531e+01
7.679999828338623047e+00,3.141617202758789062e+01
7.719999790191650391e+00,3.145870399475097656e+01
7.759999752044677734e+00,3.150066184997558594e+01
7.799999713897705078e+00,3.153701400756835938e+01
7.839999675750732422e+00,3.156766700744628906e+01
7.879999637603759766e+00,3.159767723083496094e+01
7.919999599456787109e+00,3.162244415283203125e+01
7.959999561309814453e+00,3.164655876159667969e+01
7.999999523162841797e+00,3.166334724426269531e+01
8.039999961853027344e+00,3.167279434204101562e+01
8.079999923706054688e+00,3.168163490295410156e+01
8.119999885559082031e+00,3.169626617431640625e+01
8.159999847412109375e+00,3.170174980163574219e+01
8.199999809265136719e+00,3.170295143127441406e+01
8.239999771118164062e+00,3.170777893066406250e+01
8.279999732971191406e+00,3.173568153381347656e+01
8.319999694824218750e+00,3.176795387268066406e+01
8.359999656677246094e+00,3.179968070983886719e+01
8.399999618530273438e+00,3.182757949829101562e+01
8.439999580383300781e+00,3.185171127319335938e+01
8.479999542236328125e+00,3.187527847290039062e+01
8.520000457763671875e+00,3.189307785034179688e+01
8.560000419616699219e+00,3.191032218933105469e+01
8.600000381469726562e+00,3.192364692687988281e+01
8.640000343322753906e+00,3.193300819396972656e+01
8.680000305175781250e+00,3.194182586669921875e+01
8.720000267028808594e+00,3.195207786560058594e+01
8.760000228881835938e+00,3.196179199218750000e+01
8.800000190734863281e+00,3.196781158447265625e+01
8.840000152587890625e+00,3.197013092041015625e+01
8.880000114440917969e+00,3.197189521789550781e+01
8.920000076293945312e+00,3.197850227355957031e+01
8.960000038146972656e+00,3.197991371154785156e+01
9.000000000000000000e+00,3.197522163391113281e+01
9.039999961853027344e+00,3.196701622009277344e+01
9.079999923706054688e+00,3.195826148986816406e+01
9.119999885559082031e+00,3.194906425476074219e+01
9.159999847412109375e+00,3.196585464477539062e+01
9.199999809265136719e+00,3.197819519042968750e+01
9.239999771118164062e+00,3.198606681823730469e+01
9.279999732971191406e+00,3.199331855773925781e+01
9.319999694824218750e+00,3.200616836547851562e+01
9.359999656677246094e+00,3.201840209960937500e+01
9.399999618530273438e+00,3.202414703369140625e+01
9.439999580383300781e+00,3.202338409423828125e+01
9.479999542236328125e+00,3.202198410034179688e+01
9.519999504089355469e+00,3.202890396118164062e+01
9.560000419616699219e+00,3.203520584106445312e+01
9.600000381469726562e+00,3.201805877685546875e+01
9.640000343322753906e+00,3.198402023315429688e+01
9.680000305175781250e+00,3.196916770935058594e+01
9.720000267028808594e+00,3.195129013061523438e+01
9.760000228881835938e+00,3.193271636962890625e+01
9.800000190734863281e+00,3.185926437377929688e+01
9.840000152587890625e+00,3.172979545593261719e+01
9.880000114440917969e+00,3.159637641906738281e+01
9.920000076293945312e+00,3.146380805969238281e+01
9.960000038146972656e+00,3.134514427185058594e+01
1.000000000000000000e+01,3.087808799743652344e+01
1.003999996185302734e+01,3.005488014221191406e+01
1.007999992370605469e+01,2.923444747924804688e+01
1.011999988555908203e+01,2.842091178894042969e+01
1.015999984741210938e+01,2.761018943786621094e+01
1.019999980926513672e+01,2.672947311401367188e+01
1.023999977111816406e+01,2.676353263854980469e+01
1.027999973297119141e+01,2.679676818847656250e+01
1.032000064849853516e+01,2.683098983764648438e+01
1.036000061035156250e+01,2.686442565917968750e+01
1.040000057220458984e+01,2.700110626220703125e+01
1.044000053405761719e+01,2.720243263244628906e+01
1.048000049591064453e+01,2.728304100036621094e+01
1.052000045776367188e+01,2.735179328918457031e+01
1.056000041961669922e+01,2.741988372802734375e+01
1.060000038146972656e+01,2.740977478027343750e+01
1.064000034332275391e+01,2.732188987731933594e+01
1.068000030517578125e+01,2.723377609252929688e+01
1.072000026702880859e+01,2.714965820312500000e+01
1.076000022888183594e+01,2.706531906127929688e+01
1.080000019073486328e+01,2.696541213989257812e+01
1.084000015258789062e+01,2.684819412231445312e+01
1.088000011444091797e+01,2.673004150390625000e+01
1.092000007629394531e+01,2.660665321350097656e+01
1.096000003814697266e+01,2.648332023620605469e+01
1.100000000000000000e+01,2.634584045410156250e+01
1.103999996185302734e+01,2.619433784484863281e+01
1.107999992370605469e+01,2.604311943054199219e+01
1.111999988555908203e+01,2.600257110595703125e+01
1.115999984741210938e+01,2.596182632446289062e+01
1.119999980926513672e+01,2.585662841796875000e+01
1.123999977111816406e+01,2.568708992004394531e+01
1.127999973297119141e+01,2.551750373840332031e+01
1.131999969482421875e+01,2.534877967834472656e+01
1.136000061035156250e+01,2.518002319335937500e+01
1.140000057220458984e+01,2.489529418945312500e+01
1.144000053405761719e+01,2.449434471130371094e+01
1.148000049591064453e+01,2.409296798706054688e+01
1.152000045776367188e+01,2.367426490783691406e+01
1.156000041961669922e+01,2.264234924316406250e+01
1.160000038146972656e+01,2.234867095947265625e+01
1.164000034332275391e+01,2.226332855224609375e+01
1.168000030517578125e+01,2.217736625671386719e+01
1.172000026702880859e+01,2.208871078491210938e+01
1.176000022888183594e+01,2.199915504455566406e+01
1.180000019073486328e+01,2.189693641662597656e+01
1.184000015258789062e+01,2.178251647949218750e+01
1.188000011444091797e+01,2.166812133789062500e+01
1.192000007629394531e+01,2.155878448486328125e+01
1.196000003814697266e+01,2.144870948791503906e+01
1.200000000000000000e+01,2.132304573059082031e+01
1.203999996185302734e+01,2.118187904357910156e+01
1.207999992370605469e+01,2.108726501464843750e+01
1.211999988555908203e+01,2.111790084838867188e+01
1.215999984741210938e+01,2.114846420288085938e+01
1.219999980926513672e+01,2.116880607604980469e+01
1.223999977111816406e+01,2.117889213562011719e+01
1.227999973297119141e+01,2.118887710571289062e+01
1.231999969482421875e+01,2.119658660888671875e+01
1.236000061035156250e+01,2.120421218872070312e+01
1.240000057220458984e+01,2.119781684875488281e+01
1.244000053405761719e+01,2.117746925354003906e+01
1.248000049591064453e+01,2.115701293945312500e+01
1.252000045776367188e+01,2.114716720581054688e+01
1.256000041961669922e+01,2.113723564147949219e+01
1.260000038146972656e+01,2.111972999572753906e+01
1.264000034332275391e+01,2.109466934204101562e+01
1.268000030517578125e+01,2.106951713562011719e+01
1.272000026702880859e+01,2.103175163269042969e+01
1.276000022888183594e+01,2.099391937255859375e+01
1.280000019073486328e+01,2.095142173767089844e+01
1.284000015258789062e+01,2.090425682067871094e+01
1.288000011444091797e+01,2.085712623596191406e+01
1.292000007629394531e+01,2.082341003417968750e+01
1.296000003814697266e+01,2.078959846496582031e+01
1.300000000000000000e+01,2.073590278625488281e+01
1.303999996185302734e+01,2.066233634948730469e+01
1.307999992370605469e+01,2.058873939514160156e+01
1.311999988555908203e+01,2.049795722961425781e+01
1.315999984741210938e+01,2.040701103210449219e+01
1.319999980926513672e+01,2.030492401123046875e+01
1.323999977111816406e+01,2.019181060791015625e+01
1.327999973297119141e+01,2.006971168518066406e+01
1.331999969482421875e+01,1.976967620849609375e+01
1.335999965667724609e+01,1.966502761840820312e+01
1.340000057220458984e+01,1.959372138977050781e+01
1.344000053405761719e+01,1.954659843444824219e+01
1.348000049591064453e+01,1.949938392639160156e+01
1.352000045776367188e+01,1.945966529846191406e+01
1.356000041961669922e+01,1.941984367370605469e+01
1.360000038146972656e+01,1.937369537353515625e+01
1.364000034332275391e+01,1.932126235961914062e+01
1.368000030517578125e+01,1.926865577697753906e+01
1.372000026702880859e+01,1.920491409301757812e+01
1.376000022888183594e+01,1.914111709594726562e+01
1.380000019073486328e+01,1.907225036621093750e+01
1.384000015258789062e+01,1.893283462524414062e+01
1.388000011444091797e+01,1.885887718200683594e+01
1.392000007629394531e+01,1.882524681091308594e+01
1.396000003814697266e+01,1.879165840148925781e+01
1.400000000000000000e+01,1.876163482666015625e+01
1.403999996185302734e+01,1.873518562316894531e+01
1.407999992370605469e+01,1.870865631103515625e+01
1.411999988555908203e+01,1.868194389343261719e+01
1.415999984741210938e+01,1.865515899658203125e+01
1.419999980926513672e+01,1.862788772583007812e+01
1.423999977111816406e+01,1.860013580322265625e+01
1.427999973297119141e+01,1.857230567932128906e+01
1.431999969482421875e+01,1.853787422180175781e+01
1.435999965667724609e+01,1.850340080261230469e+01
1.439999961853027344e+01,1.846693801879882812e+01
1.444000053405761719e+01,1.842791938781738281e+01
1.448000049591064453e+01,1.838889312744140625e+01
1.452000045776367188e+01,1.836032485961914062e+01
1.456000041961669922e+01,1.833167839050292969e+01
1.460000038146972656e+01,1.830270576477050781e+01
1.464000034332275391e+01,1.827339363098144531e+01
1.468000030517578125e+01,1.824401283264160156e+01
1.472000026702880859e+01,1.820775794982910156e+01
1.476000022888183594e+01,1.817146301269531250e+01
1.480000019073486328e+01,1.813488578796386719e+01
1.484000015258789062e+01,1.809801864624023438e+01
1.488000011444091797e+01,1.806106758117675781e+01
1.492000007629394531e+01,1.803068542480468750e+01
1.496000003814697266e+01,1.800022506713867188e+01
1.500000000000000000e+01,1.796986389160156250e+01
1.503999996185302734e+01,1.793958663940429688e+01
1.507999992370605469e+01,1.790922737121582031e+01
1.511999988555908203e+01,1.787306594848632812e+01
1.515999984741210938e+01,1.783686447143554688e+01
1.519999980926513672e+01,1.780001640319824219e+01
1.523999977111816406e+01,1.776252365112304688e+01
1.527999973297119141e+01,1.772497558593750000e+01
1.531999969482421875e+01,1.769260406494140625e+01
1.535999965667724609e+01,1.766015434265136719e+01
1.539999961853027344e+01,1.762769699096679688e+01
1.544000053405761719e+01,1.759523010253906250e+01
1.548000049591064453e+01,1.756268882751464844e+01
1.552000045776367188e+01,1.752705955505371094e+01
1.556000041961669922e+01,1.749135589599609375e+01
1.560000038146972656e+01,1.745655632019042969e+01
1.564000034332275391e+01,1.742264938354492188e+01
1.568000030517578125e+01,1.738867568969726562e+01
1.572000026702880859e+01,1.735432052612304688e+01
1.576000022888183594e+01,1.731988143920898438e+01
1.580000019073486328e+01,1.728422927856445312e+01
1.584000015258789062e+01,1.724734687805175781e+01
1.588000011444091797e+01,1.721005821228027344e+01
1.592000007629394531e+01,1.717193031311035156e+01
1.596000003814697266e+01,1.713373756408691406e+01
1.600000000000000000e+01,1.709482002258300781e+01
1.603999900817871094e+01,1.705518341064453125e+01
1.607999992370605469e+01,1.701549148559570312e+01
1.611999893188476562e+01,1.698136901855468750e+01
1.615999984741210938e+01,1.694716072082519531e+01
1.619999885559082031e+01,1.691287040710449219e+01
1.623999977111816406e+01,1.687848854064941406e+01
1.627999877929687500e+01,1.684402847290039062e+01
1.631999969482421875e+01,1.679661941528320312e+01
1.635999870300292969e+01,1.674919700622558594e+01
1.639999961853027344e+01,1.670176124572753906e+01
1.643999862670898438e+01,1.665431785583496094e+01
1.647999954223632812e+01,1.660684585571289062e+01
1.652000045776367188e+01,1.657295608520507812e+01
1.655999946594238281e+01,1.653898620605468750e+01
1.660000038146972656e+01,1.650493621826171875e+01
1.663999938964843750e+01,1.647080039978027344e+01
1.668000030517578125e+01,1.643658065795898438e+01
1.671999931335449219e+01,1.640168380737304688e+01
1.676000022888183594e+01,1.636670303344726562e+01
1.679999923706054688e+01,1.633164024353027344e+01
1.684000015258789062e+01,1.629649734497070312e+01
1.687999916076660156e+01,1.626127624511718750e+01
1.692000007629394531e+01,1.621954154968261719e+01
1.695999908447265625e+01,1.617777442932128906e+01
1.700000000000000000e+01,1.613584518432617188e+01
1.703999900817871094e+01,1.609375190734863281e+01
1.707999992370605469e+01,1.605163192749023438e+01
1.711999893188476562e+01,1.600856018066406250e+01
1.715999984741210938e+01,1.596546459197998047e+01
1.719999885559082031e+01,1.592236709594726562e+01
1.723999977111816406e+01,1.587925720214843750e+01
1.727999877929687500e+01,1.582748126983642578e+01
1.731999969482421875e+01,1.577683830261230469e+01
1.735999870300292969e+01,1.572623062133789062e+01
1.739999961853027344e+01,1.567564392089843750e+01
1.743999862670898438e+01,1.562502574920654297e+01
1.747999954223632812e+01,1.557425785064697266e+01
