# Start of Energy Bin (keV), Effective Area (cm^2)
1.600000023841857910e+00,2.967972755432128906e-01
1.639999985694885254e+00,4.104772508144378662e-01
1.680000066757202148e+00,5.657083392143249512e-01
1.720000028610229492e+00,7.770780920982360840e-01
1.759999990463256836e+00,1.048607587814331055e+00
1.799999952316284180e+00,1.316637754440307617e+00
1.840000033378601074e+00,7.271494269371032715e-01
1.879999995231628418e+00,9.254465103149414062e-01
1.920000076293945312e+00,1.207025170326232910e+00
1.960000038146972656e+00,1.521681427955627441e+00
2.000000000000000000e+00,1.883860111236572266e+00
2.039999961853027344e+00,2.312030792236328125e+00
2.079999923706054688e+00,2.833653688430786133e+00
2.119999885559082031e+00,2.582030773162841797e+00
2.160000085830688477e+00,2.997858285903930664e+00
2.200000047683715820e+00,3.126877069473266602e+00
2.240000009536743164e+00,3.578875541687011719e+00
2.279999971389770508e+00,4.107697963714599609e+00
2.319999933242797852e+00,4.759953498840332031e+00
2.360000133514404297e+00,5.393478393554687500e+00
2.400000095367431641e+00,6.001026153564453125e+00
2.440000057220458984e+00,6.689035415649414062e+00
2.480000019073486328e+00,7.493169307708740234e+00
2.519999980926513672e+00,8.461076736450195312e+00
2.559999942779541016e+00,9.524413108825683594e+00
2.599999904632568359e+00,1.048720169067382812e+01
2.639999866485595703e+00,1.068813037872314453e+01
2.679999828338623047e+00,1.165116500854492188e+01
2.720000028610229492e+00,1.268752479553222656e+01
2.759999990463256836e+00,1.380847167968750000e+01
2.799999952316284180e+00,1.501546764373779297e+01
2.840000152587890625e+00,1.626306724548339844e+01
2.880000114440917969e+00,1.733789825439453125e+01
2.920000076293945312e+00,1.846296119689941406e+01
2.960000038146972656e+00,1.965477752685546875e+01
3.000000000000000000e+00,2.092057991027832031e+01
3.039999961853027344e+00,2.162937927246093750e+01
3.079999923706054688e+00,2.289272499084472656e+01
3.119999885559082031e+00,2.419894409179687500e+01
3.159999847412109375e+00,2.527321434020996094e+01
3.199999809265136719e+00,2.638024711608886719e+01
3.240000009536743164e+00,2.752158355712890625e+01
3.279999971389770508e+00,2.831695556640625000e+01
3.319999933242797852e+00,3.006415748596191406e+01
3.360000133514404297e+00,3.190472793579101562e+01
3.400000095367431641e+00,3.383386611938476562e+01
3.440000057220458984e+00,3.520458221435546875e+01
3.480000019073486328e+00,3.614970779418945312e+01
3.519999980926513672e+00,3.505025482177734375e+01
3.559999942779541016e+00,3.598222351074218750e+01
3.599999904632568359e+00,3.694598007202148438e+01
3.639999866485595703e+00,3.792113876342773438e+01
3.679999828338623047e+00,3.890928268432617188e+01
3.719999790191650391e+00,3.884733963012695312e+01
3.759999752044677734e+00,3.987020111083984375e+01
3.800000190734863281e+00,4.075809478759765625e+01
3.840000152587890625e+00,4.155089950561523438e+01
3.880000114440917969e+00,4.234449005126953125e+01
3.920000076293945312e+00,4.339414978027343750e+01
3.960000038146972656e+00,4.454312133789062500e+01
4.000000000000000000e+00,4.512417984008789062e+01
4.039999961853027344e+00,4.625193023681640625e+01
4.079999923706054688e+00,4.739445114135742188e+01
4.119999885559082031e+00,4.855337524414062500e+01
4.159999847412109375e+00,4.971427154541015625e+01
4.199999809265136719e+00,5.071352386474609375e+01
4.239999771118164062e+00,5.171942901611328125e+01
4.279999732971191406e+00,5.273461532592773438e+01
4.320000171661376953e+00,5.178155517578125000e+01
4.360000133514404297e+00,5.205101776123046875e+01
4.400000095367431641e+00,5.289399719238281250e+01
4.440000057220458984e+00,5.374179077148437500e+01
4.480000019073486328e+00,5.459889602661132812e+01
4.519999980926513672e+00,5.545767974853515625e+01
4.559999942779541016e+00,5.631570434570312500e+01
4.599999904632568359e+00,5.569059371948242188e+01
4.639999866485595703e+00,5.645796966552734375e+01
4.679999828338623047e+00,5.715608978271484375e+01
4.719999790191650391e+00,5.786299133300781250e+01
4.759999752044677734e+00,5.857028961181640625e+01
4.799999713897705078e+00,5.927765655517578125e+01
4.840000152587890625e+00,5.998169326782226562e+01
4.880000114440917969e+00,6.068453979492187500e+01
4.920000076293945312e+00,6.069709777832031250e+01
4.960000038146972656e+00,6.138703918457031250e+01
5.000000000000000000e+00,6.206034469604492188e+01
5.039999961853027344e+00,6.276931762695312500e+01
5.079999923706054688e+00,6.343059539794921875e+01
5.119999885559082031e+00,6.410581207275390625e+01
5.159999847412109375e+00,6.477951049804687500e+01
5.199999809265136719e+00,6.545061492919921875e+01
5.239999771118164062e+00,6.611972808837890625e+01
5.279999732971191406e+00,6.678886413574218750e+01
5.320000171661376953e+00,6.743785858154296875e+01
5.360000133514404297e+00,6.808650207519531250e+01
5.400000095367431641e+00,6.873324584960937500e+01
5.440000057220458984e+00,6.937744903564453125e+01
5.480000019073486328e+00,7.002075195312500000e+01
5.519999980926513672e+00,7.068762969970703125e+01
5.559999942779541016e+00,7.130527496337890625e+01
5.599999904632568359e+00,7.187071228027343750e+01
5.639999866485595703e+00,7.243394470214843750e+01
5.679999828338623047e+00,7.299575042724609375e+01
5.719999790191650391e+00,7.353444671630859375e+01
5.759999752044677734e+00,7.407142639160156250e+01
5.799999713897705078e+00,7.460020446777343750e+01
5.839999675750732422e+00,7.512117767333984375e+01
5.879999637603759766e+00,7.564037322998046875e+01
5.919999599456787109e+00,7.617414093017578125e+01
5.960000038146972656e+00,7.670632934570312500e+01
6.000000000000000000e+00,7.719675445556640625e+01
6.039999961853027344e+00,7.764450836181640625e+01
6.079999923706054688e+00,7.809001922607421875e+01
6.119999885559082031e+00,7.849200439453125000e+01
6.159999847412109375e+00,7.886618804931640625e+01
6.199999809265136719e+00,7.924055480957031250e+01
6.239999771118164062e+00,7.961528778076171875e+01
6.279999732971191406e+00,7.998764801025390625e+01
6.319999694824218750e+00,8.035447692871093750e+01
6.359999656677246094e+00,8.071887207031250000e+01
6.399999618530273438e+00,8.107859802246093750e+01
6.439999580383300781e+00,8.143373870849609375e+01
6.480000019073486328e+00,8.178662109375000000e+01
6.519999980926513672e+00,8.213788604736328125e+01
6.559999942779541016e+00,8.248701477050781250e+01
6.599999904632568359e+00,8.283163452148437500e+01
6.639999866485595703e+00,8.317176818847656250e+01
6.679999828338623047e+00,8.350987243652343750e+01
6.719999790191650391e+00,8.382769012451171875e+01
6.759999752044677734e+00,8.410745239257812500e+01
6.799999713897705078e+00,8.438040161132812500e+01
6.839999675750732422e+00,8.464666748046875000e+01
6.879999637603759766e+00,8.491082000732421875e+01
6.919999599456787109e+00,8.517349243164062500e+01
6.959999561309814453e+00,8.543412017822265625e+01
7.000000000000000000e+00,8.567285156250000000e+01
7.039999961853027344e+00,8.588950347900390625e+01
7.079999923706054688e+00,8.610455322265625000e+01
7.119999885559082031e+00,8.586561584472656250e+01
7.159999847412109375e+00,8.607747650146484375e+01
7.199999809265136719e+00,8.628677368164062500e+01
7.239999771118164062e+00,8.649376678466796875e+01
7.279999732971191406e+00,8.669886779785156250e+01
7.319999694824218750e+00,8.690073394775390625e+01
7.359999656677246094e+00,8.710071563720703125e+01
7.399999618530273438e+00,8.729212188720703125e+01
7.439999580383300781e+00,8.747494506835937500e+01
7.479999542236328125e+00,8.765605163574218750e+01
7.519999980926513672e+00,8.783178710937500000e+01
7.559999942779541016e+00,8.800579833984375000e+01
7.599999904632568359e+00,8.816845703125000000e+01
7.639999866485595703e+00,8.831964111328125000e+01
7.679999828338623047e+00,8.846917724609375000e+01
7.719999790191650391e+00,8.863253784179687500e+01
7.759999752044677734e+00,8.879446411132812500e+01
7.799999713897705078e+00,8.894152832031250000e+01
7.839999675750732422e+00,8.907345581054687500e+01
7.879999637603759766e+00,8.920377349853515625e+01
7.919999599456787109e+00,8.932829284667968750e+01
7.959999561309814453e+00,8.945118713378906250e+01
7.999999523162841797e+00,8.954922485351562500e+01
8.039999961853027344e+00,8.962234497070312500e+01
8.079999923706054688e+00,8.969387817382812500e+01
8.119999885559082031e+00,8.976029968261718750e+01
8.159999847412109375e+00,8.980094146728515625e+01
8.199999809265136719e+00,8.982460021972656250e+01
8.239999771118164062e+00,8.984940338134765625e+01
8.279999732971191406e+00,8.992683410644531250e+01
8.319999694824218750e+00,9.001079559326171875e+01
8.359999656677246094e+00,9.009330749511718750e+01
8.399999618530273438e+00,9.016128540039062500e+01
8.439999580383300781e+00,9.021487426757812500e+01
8.479999542236328125e+00,9.026692962646484375e+01
8.520000457763671875e+00,9.031376647949218750e+01
8.560000419616699219e+00,9.035910034179687500e+01
8.600000381469726562e+00,9.039051818847656250e+01
8.640000343322753906e+00,9.040785217285156250e+01
8.680000305175781250e+00,9.042369079589843750e+01
8.720000267028808594e+00,9.045716857910156250e+01
8.760000228881835938e+00,9.048915100097656250e+01
8.800000190734863281e+00,9.050886535644531250e+01
8.840000152587890625e+00,9.051631927490234375e+01
8.880000114440917969e+00,9.052220153808593750e+01
8.920000076293945312e+00,9.052324676513671875e+01
8.960000038146972656e+00,9.050961303710937500e+01
9.000000000000000000e+00,9.047699737548828125e+01
9.039999961853027344e+00,9.043267822265625000e+01
9.079999923706054688e+00,9.038686370849609375e+01
9.119999885559082031e+00,9.036422729492187500e+01
9.159999847412109375e+00,9.040143585205078125e+01
9.199999809265136719e+00,9.042549133300781250e+01
9.239999771118164062e+00,9.043633270263671875e+01
9.279999732971191406e+00,9.044550323486328125e+01
9.319999694824218750e+00,9.046028900146484375e+01
9.359999656677246094e+00,9.047341156005859375e+01
9.399999618530273438e+00,9.046844482421875000e+01
9.439999580383300781e+00,9.044534301757812500e+01
9.479999542236328125e+00,9.042054748535156250e+01
9.519999504089355469e+00,9.040558624267578125e+01
9.560000419616699219e+00,9.038896942138671875e+01
9.600000381469726562e+00,9.030667114257812500e+01
9.640000343322753906e+00,9.017724609375000000e+01
9.680000305175781250e+00,9.010207366943359375e+01
9.720000267028808594e+00,9.002558898925781250e+01
9.760000228881835938e+00,8.994728088378906250e+01
9.800000190734863281e+00,8.972206115722656250e+01
9.840000152587890625e+00,8.934687042236328125e+01
9.880000114440917969e+00,8.896089172363281250e+01
9.920000076293945312e+00,8.859951782226562500e+01
9.960000038146972656e+00,8.830179595947265625e+01
1.000000000000000000e+01,8.705466461181640625e+01
1.003999996185302734e+01,8.481600952148437500e+01
1.007999992370605469e+01,8.258126831054687500e+01
1.011999988555908203e+01,8.034033203125000000e+01
1.015999984741210938e+01,7.810468292236328125e+01
1.019999980926513672e+01,7.566519165039062500e+01
1.023999977111816406e+01,7.576889801025390625e+01
1.027999973297119141e+01,7.587021636962890625e+01
1.032000064849853516e+01,7.597607421875000000e+01
1.036000061035156250e+01,7.607968139648437500e+01
1.040000057220458984e+01,7.647494506835937500e+01
1.044000053405761719e+01,7.705294799804687500e+01
1.048000049591064453e+01,7.729012298583984375e+01
1.052000045776367188e+01,7.750186157226562500e+01
1.056000041961669922e+01,7.771193695068359375e+01
1.060000038146972656e+01,7.770688629150390625e+01
1.064000034332275391e+01,7.748771667480468750e+01
1.068000030517578125e+01,7.726783752441406250e+01
1.072000026702880859e+01,7.708065032958984375e+01
1.076000022888183594e+01,7.689263153076171875e+01
1.080000019073486328e+01,7.666103363037109375e+01
1.084000015258789062e+01,7.638079071044921875e+01
1.088000011444091797e+01,7.609754180908203125e+01
1.092000007629394531e+01,7.576581573486328125e+01
1.096000003814697266e+01,7.543423461914062500e+01
1.100000000000000000e+01,7.506232452392578125e+01
1.103999996185302734e+01,7.465041351318359375e+01
1.107999992370605469e+01,7.423925781250000000e+01
1.111999988555908203e+01,7.414585876464843750e+01
1.115999984741210938e+01,7.405183410644531250e+01
1.119999980926513672e+01,7.377474212646484375e+01
1.123999977111816406e+01,7.331474304199218750e+01
1.127999973297119141e+01,7.285430908203125000e+01
1.131999969482421875e+01,7.239630126953125000e+01
1.136000061035156250e+01,7.193789672851562500e+01
1.140000057220458984e+01,7.113986206054687500e+01
1.144000053405761719e+01,7.000146484375000000e+01
1.148000049591064453e+01,6.886158752441406250e+01
1.152000045776367188e+01,6.766887664794921875e+01
1.156000041961669922e+01,6.471394348144531250e+01
1.160000038146972656e+01,6.387479782104492188e+01
1.164000034332275391e+01,6.363619232177734375e+01
1.168000030517578125e+01,6.339577102661132812e+01
1.172000026702880859e+01,6.316032791137695312e+01
1.176000022888183594e+01,6.292214965820312500e+01
1.180000019073486328e+01,6.264569091796875000e+01
1.184000015258789062e+01,6.233228683471679688e+01
1.188000011444091797e+01,6.201880645751953125e+01
1.192000007629394531e+01,6.168774032592773438e+01
1.196000003814697266e+01,6.135478973388671875e+01
1.200000000000000000e+01,6.097666931152343750e+01
1.203999996185302734e+01,6.055368423461914062e+01
1.207999992370605469e+01,6.026216506958007812e+01
1.211999988555908203e+01,6.035107040405273438e+01
1.215999984741210938e+01,6.043972778320312500e+01
1.219999980926513672e+01,6.049996948242187500e+01
1.223999977111816406e+01,6.053166580200195312e+01
1.227999973297119141e+01,6.056307601928710938e+01
1.231999969482421875e+01,6.059655761718750000e+01
1.236000061035156250e+01,6.062979507446289062e+01
1.240000057220458984e+01,6.062341690063476562e+01
1.244000053405761719e+01,6.057757186889648438e+01
1.248000049591064453e+01,6.053140258789062500e+01
1.252000045776367188e+01,6.048397064208984375e+01
1.256000041961669922e+01,6.043633651733398438e+01
1.260000038146972656e+01,6.036720275878906250e+01
1.264000034332275391e+01,6.027663421630859375e+01
1.268000030517578125e+01,6.018587493896484375e+01
1.272000026702880859e+01,6.008513259887695312e+01
1.276000022888183594e+01,5.998416519165039062e+01
1.280000019073486328e+01,5.986980438232421875e+01
1.284000015258789062e+01,5.974204635620117188e+01
1.288000011444091797e+01,5.961434173583984375e+01
1.292000007629394531e+01,5.948569869995117188e+01
1.296000003814697266e+01,5.935691833496093750e+01
1.300000000000000000e+01,5.917024230957031250e+01
1.303999996185302734e+01,5.892582702636718750e+01
1.307999992370605469e+01,5.868160247802734375e+01
1.311999988555908203e+01,5.842449188232421875e+01
1.315999984741210938e+01,5.816688919067382812e+01
1.319999980926513672e+01,5.787708282470703125e+01
1.323999977111816406e+01,5.755538558959960938e+01
1.327999973297119141e+01,5.721505355834960938e+01
1.331999969482421875e+01,5.636612319946289062e+01
1.335999965667724609e+01,5.606925582885742188e+01
1.340000057220458984e+01,5.586596679687500000e+01
1.344000053405761719e+01,5.573179244995117188e+01
1.348000049591064453e+01,5.559735488891601562e+01
1.352000045776367188e+01,5.545833587646484375e+01
1.356000041961669922e+01,5.531914138793945312e+01
1.360000038146972656e+01,5.516152954101562500e+01
1.364000034332275391e+01,5.498564147949218750e+01
1.368000030517578125e+01,5.480943679809570312e+01
1.372000026702880859e+01,5.464635467529296875e+01
1.376000022888183594e+01,5.448300170898437500e+01
1.380000019073486328e+01,5.430523681640625000e+01
1.384000015258789062e+01,5.392653656005859375e+01
1.388000011444091797e+01,5.373619842529296875e+01
1.392000007629394531e+01,5.362573242187500000e+01
1.396000003814697266e+01,5.351545333862304688e+01
1.400000000000000000e+01,5.341525268554687500e+01
1.403999996185302734e+01,5.332514953613281250e+01
1.407999992370605469e+01,5.323486328125000000e+01
1.411999988555908203e+01,5.314222717285156250e+01
1.415999984741210938e+01,5.304943847656250000e+01
1.419999980926513672e+01,5.295500183105468750e+01
1.423999977111816406e+01,5.285892105102539062e+01
1.427999973297119141e+01,5.276269149780273438e+01
1.431999969482421875e+01,5.268614959716796875e+01
1.435999965667724609e+01,5.260941314697265625e+01
1.439999961853027344e+01,5.252666473388671875e+01
1.444000053405761719e+01,5.243626403808593750e+01
1.448000049591064453e+01,5.234577178955078125e+01
1.452000045776367188e+01,5.224377441406250000e+01
1.456000041961669922e+01,5.214162826538085938e+01
1.460000038146972656e+01,5.203833389282226562e+01
1.464000034332275391e+01,5.193384552001953125e+01
1.468000030517578125e+01,5.182925415039062500e+01
1.472000026702880859e+01,5.172653961181640625e+01
1.476000022888183594e+01,5.162371826171875000e+01
1.480000019073486328e+01,5.151990890502929688e+01
1.484000015258789062e+01,5.141508483886718750e+01
1.488000011444091797e+01,5.131003570556640625e+01
1.492000007629394531e+01,5.119851684570312500e+01
1.496000003814697266e+01,5.108689880371093750e+01
1.500000000000000000e+01,5.097547912597656250e+01
1.503999996185302734e+01,5.086423492431640625e+01
1.507999992370605469e+01,5.075286102294921875e+01
1.511999988555908203e+01,5.065687561035156250e+01
1.515999984741210938e+01,5.056072616577148438e+01
1.519999980926513672e+01,5.046279907226562500e+01
1.523999977111816406e+01,5.036307907104492188e+01
1.527999973297119141e+01,5.026317596435546875e+01
1.531999969482421875e+01,5.015230941772460938e+01
1.535999965667724609e+01,5.004131698608398438e+01
1.539999961853027344e+01,4.993052291870117188e+01
1.544000053405761719e+01,4.981992721557617188e+01
1.548000049591064453e+01,4.970920944213867188e+01
1.552000045776367188e+01,4.960449218750000000e+01
1.556000041961669922e+01,4.949958801269531250e+01
1.560000038146972656e+01,4.939747238159179688e+01
1.564000034332275391e+01,4.929812622070312500e+01
1.568000030517578125e+01,4.919859695434570312e+01
1.572000026702880859e+01,4.909315872192382812e+01
1.576000022888183594e+01,4.898759460449218750e+01
1.580000019073486328e+01,4.887894058227539062e+01
1.584000015258789062e+01,4.876717376708984375e+01
1.588000011444091797e+01,4.865429306030273438e+01
1.592000007629394531e+01,4.855710601806640625e+01
1.596000003814697266e+01,4.845968627929687500e+01
1.600000000000000000e+01,4.836074066162109375e+01
1.603999900817871094e+01,4.826026153564453125e+01
1.607999992370605469e+01,4.815958023071289062e+01
1.611999893188476562e+01,4.804878234863281250e+01
1.615999984741210938e+01,4.793781280517578125e+01
1.619999885559082031e+01,4.782668304443359375e+01
1.623999977111816406e+01,4.771537017822265625e+01
1.627999877929687500e+01,4.760391235351562500e+01
1.631999969482421875e+01,4.749456024169921875e+01
1.635999870300292969e+01,4.738504409790039062e+01
1.639999961853027344e+01,4.727536392211914062e+01
1.643999862670898438e+01,4.716553115844726562e+01
1.647999954223632812e+01,4.705550384521484375e+01
1.652000045776367188e+01,4.694458770751953125e+01
1.655999946594238281e+01,4.683353424072265625e+01
1.660000038146972656e+01,4.672234344482421875e+01
1.663999938964843750e+01,4.661098480224609375e+01
1.668000030517578125e+01,4.649948120117187500e+01
1.671999931335449219e+01,4.639170837402343750e+01
1.676000022888183594e+01,4.628375625610351562e+01
1.679999923706054688e+01,4.617562866210937500e+01
1.684000015258789062e+01,4.606732940673828125e+01
1.687999916076660156e+01,4.595886230468750000e+01
1.692000007629394531e+01,4.584851074218750000e+01
1.695999908447265625e+01,4.573802185058593750e+01
1.700000000000000000e+01,4.562626647949218750e+01
1.703999900817871094e+01,4.551325607299804688e+01
1.707999992370605469e+01,4.540014266967773438e+01
1.711999893188476562e+01,4.529598617553710938e+01
1.715999984741210938e+01,4.519166946411132812e+01
1.719999885559082031e+01,4.508724594116210938e+01
1.723999977111816406e+01,4.498268127441406250e+01
1.727999877929687500e+01,4.485729980468750000e+01
1.731999969482421875e+01,4.471071624755859375e+01
1.735999870300292969e+01,4.456427383422851562e+01
1.739999961853027344e+01,4.441791534423828125e+01
1.743999862670898438e+01,4.427150726318359375e+01
1.747999954223632812e+01,4.412469482421875000e+01
