# Start of Energy Bin (keV), Effective Area (cm^2)
1.600000023841857910e+00,2.727847099304199219e-01
1.639999985694885254e+00,3.770557641983032227e-01
1.680000066757202148e+00,5.193535089492797852e-01
1.720000028610229492e+00,7.129954099655151367e-01
1.759999990463256836e+00,9.615774154663085938e-01
1.799999952316284180e+00,1.206433773040771484e+00
1.840000033378601074e+00,6.657108068466186523e-01
1.879999995231628418e+00,8.469973206520080566e-01
1.920000076293945312e+00,1.105097055435180664e+00
1.960000038146972656e+00,1.393670797348022461e+00
2.000000000000000000e+00,1.726118803024291992e+00
2.039999961853027344e+00,2.119500398635864258e+00
2.079999923706054688e+00,2.598976135253906250e+00
2.119999885559082031e+00,2.369122505187988281e+00
2.160000085830688477e+00,2.751351356506347656e+00
2.200000047683715820e+00,2.870368957519531250e+00
2.240000009536743164e+00,3.285852432250976562e+00
2.279999971389770508e+00,3.772064208984375000e+00
2.319999933242797852e+00,4.371723175048828125e+00
2.360000133514404297e+00,4.954368114471435547e+00
2.400000095367431641e+00,5.513276576995849609e+00
2.440000057220458984e+00,6.146222591400146484e+00
2.480000019073486328e+00,6.886059761047363281e+00
2.519999980926513672e+00,7.775681495666503906e+00
2.559999942779541016e+00,8.752868652343750000e+00
2.599999904632568359e+00,9.637377738952636719e+00
2.639999866485595703e+00,9.821716308593750000e+00
2.679999828338623047e+00,1.070606231689453125e+01
2.720000028610229492e+00,1.165837001800537109e+01
2.759999990463256836e+00,1.268840789794921875e+01
2.799999952316284180e+00,1.379747772216796875e+01
2.840000152587890625e+00,1.494401550292968750e+01
2.880000114440917969e+00,1.593191337585449219e+01
2.920000076293945312e+00,1.696648788452148438e+01
2.960000038146972656e+00,1.806250000000000000e+01
3.000000000000000000e+00,1.921121788024902344e+01
3.039999961853027344e+00,1.983133506774902344e+01
3.079999923706054688e+00,2.095698165893554688e+01
3.119999885559082031e+00,2.211316680908203125e+01
3.159999847412109375e+00,2.305347442626953125e+01
3.199999809265136719e+00,2.402006149291992188e+01
3.240000009536743164e+00,2.501416778564453125e+01
3.279999971389770508e+00,2.569049453735351562e+01
3.319999933242797852e+00,2.739220809936523438e+01
3.360000133514404297e+00,2.919065475463867188e+01
3.400000095367431641e+00,3.108023834228515625e+01
3.440000057220458984e+00,3.236251831054687500e+01
3.480000019073486328e+00,3.321940231323242188e+01
3.519999980926513672e+00,3.219651794433593750e+01
3.559999942779541016e+00,3.303955459594726562e+01
3.599999904632568359e+00,3.391092300415039062e+01
3.639999866485595703e+00,3.479186248779296875e+01
3.679999828338623047e+00,3.568379211425781250e+01
3.719999790191650391e+00,3.560126113891601562e+01
3.759999752044677734e+00,3.651206970214843750e+01
3.800000190734863281e+00,3.729779052734375000e+01
3.840000152587890625e+00,3.799515151977539062e+01
3.880000114440917969e+00,3.869194793701171875e+01
3.920000076293945312e+00,3.965988159179687500e+01
3.960000038146972656e+00,4.072734069824218750e+01
4.000000000000000000e+00,4.127611923217773438e+01
4.039999961853027344e+00,4.232554244995117188e+01
4.079999923706054688e+00,4.338930511474609375e+01
4.119999885559082031e+00,4.445679092407226562e+01
4.159999847412109375e+00,4.552632522583007812e+01
4.199999809265136719e+00,4.644801712036132812e+01
4.239999771118164062e+00,4.737594985961914062e+01
4.279999732971191406e+00,4.831257629394531250e+01
4.320000171661376953e+00,4.745718383789062500e+01
4.360000133514404297e+00,4.770886611938476562e+01
4.400000095367431641e+00,4.848185729980468750e+01
4.440000057220458984e+00,4.925921630859375000e+01
4.480000019073486328e+00,5.004511260986328125e+01
4.519999980926513672e+00,5.082035446166992188e+01
4.559999942779541016e+00,5.159452056884765625e+01
4.599999904632568359e+00,5.100979232788085938e+01
4.639999866485595703e+00,5.170043945312500000e+01
4.679999828338623047e+00,5.232733154296875000e+01
4.719999790191650391e+00,5.297425079345703125e+01
4.759999752044677734e+00,5.362152099609375000e+01
4.799999713897705078e+00,5.426879119873046875e+01
4.840000152587890625e+00,5.491294479370117188e+01
4.880000114440917969e+00,5.555599594116210938e+01
4.920000076293945312e+00,5.555690002441406250e+01
4.960000038146972656e+00,5.617768859863281250e+01
5.000000000000000000e+00,5.678295898437500000e+01
5.039999961853027344e+00,5.742098236083984375e+01
5.079999923706054688e+00,5.801541519165039062e+01
5.119999885559082031e+00,5.862201309204101562e+01
5.159999847412109375e+00,5.922700500488281250e+01
5.199999809265136719e+00,5.982934951782226562e+01
5.239999771118164062e+00,6.042958068847656250e+01
5.279999732971191406e+00,6.102962875366210938e+01
5.320000171661376953e+00,6.163291931152343750e+01
5.360000133514404297e+00,6.223609161376953125e+01
5.400000095367431641e+00,6.283766174316406250e+01
5.440000057220458984e+00,6.343702697753906250e+01
5.480000019073486328e+00,6.403578186035156250e+01
5.519999980926513672e+00,6.462046813964843750e+01
5.559999942779541016e+00,6.515971374511718750e+01
5.599999904632568359e+00,6.565076446533203125e+01
5.639999866485595703e+00,6.613931274414062500e+01
5.679999828338623047e+00,6.662618255615234375e+01
5.719999790191650391e+00,6.712525939941406250e+01
5.759999752044677734e+00,6.762287902832031250e+01
5.799999713897705078e+00,6.811297607421875000e+01
5.839999675750732422e+00,6.859589385986328125e+01
5.879999637603759766e+00,6.907730102539062500e+01
5.919999599456787109e+00,6.954345703125000000e+01
5.960000038146972656e+00,7.000787353515625000e+01
6.000000000000000000e+00,7.043468475341796875e+01
6.039999961853027344e+00,7.082308197021484375e+01
6.079999923706054688e+00,7.120921325683593750e+01
6.119999885559082031e+00,7.156611633300781250e+01
6.159999847412109375e+00,7.189759063720703125e+01
6.199999809265136719e+00,7.222894287109375000e+01
6.239999771118164062e+00,7.256032562255859375e+01
6.279999732971191406e+00,7.288946533203125000e+01
6.319999694824218750e+00,7.322882843017578125e+01
6.359999656677246094e+00,7.356602478027343750e+01
6.399999618530273438e+00,7.389866638183593750e+01
6.439999580383300781e+00,7.422680664062500000e+01
6.480000019073486328e+00,7.455290985107421875e+01
6.519999980926513672e+00,7.485235595703125000e+01
6.559999942779541016e+00,7.514967346191406250e+01
6.599999904632568359e+00,7.544217681884765625e+01
6.639999866485595703e+00,7.572988128662109375e+01
6.679999828338623047e+00,7.601556396484375000e+01
6.719999790191650391e+00,7.629454040527343750e+01
6.759999752044677734e+00,7.653881072998046875e+01
6.799999713897705078e+00,7.677581787109375000e+01
6.839999675750732422e+00,7.700566101074218750e+01
6.879999637603759766e+00,7.723351287841796875e+01
6.919999599456787109e+00,7.746163940429687500e+01
6.959999561309814453e+00,7.768783569335937500e+01
7.000000000000000000e+00,7.789299774169921875e+01
7.039999961853027344e+00,7.807698059082031250e+01
7.079999923706054688e+00,7.825943756103515625e+01
7.119999885559082031e+00,7.803802490234375000e+01
7.159999847412109375e+00,7.822632598876953125e+01
7.199999809265136719e+00,7.840814971923828125e+01
7.239999771118164062e+00,7.858370971679687500e+01
7.279999732971191406e+00,7.875747680664062500e+01
7.319999694824218750e+00,7.891532897949218750e+01
7.359999656677246094e+00,7.907135009765625000e+01
7.399999618530273438e+00,7.921493530273437500e+01
7.439999580383300781e+00,7.934603118896484375e+01
7.479999542236328125e+00,7.947542572021484375e+01
7.519999980926513672e+00,7.960503387451171875e+01
7.559999942779541016e+00,7.973292541503906250e+01
7.599999904632568359e+00,7.984634399414062500e+01
7.639999866485595703e+00,7.994517517089843750e+01
7.679999828338623047e+00,8.004232788085937500e+01
7.719999790191650391e+00,8.015649414062500000e+01
7.759999752044677734e+00,8.026920318603515625e+01
7.799999713897705078e+00,8.036808776855468750e+01
7.839999675750732422e+00,8.045289611816406250e+01
7.879999637603759766e+00,8.053610229492187500e+01
7.919999599456787109e+00,8.060569763183593750e+01
7.959999561309814453e+00,8.067366027832031250e+01
7.999999523162841797e+00,8.072215270996093750e+01
8.039999961853027344e+00,8.075112915039062500e+01
8.079999923706054688e+00,8.077856445312500000e+01
8.119999885559082031e+00,8.079914855957031250e+01
8.159999847412109375e+00,8.079641723632812500e+01
8.199999809265136719e+00,8.078262329101562500e+01
8.239999771118164062e+00,8.077813720703125000e+01
8.279999732971191406e+00,8.083309936523437500e+01
8.319999694824218750e+00,8.090170288085937500e+01
8.359999656677246094e+00,8.096891021728515625e+01
8.399999618530273438e+00,8.102639770507812500e+01
8.439999580383300781e+00,8.107431030273437500e+01
8.479999542236328125e+00,8.112079620361328125e+01
8.520000457763671875e+00,8.116867828369140625e+01
8.560000419616699219e+00,8.121514892578125000e+01
8.600000381469726562e+00,8.125211334228515625e+01
8.640000343322753906e+00,8.127945709228515625e+01
8.680000305175781250e+00,8.130541229248046875e+01
8.720000267028808594e+00,8.133680725097656250e+01
8.760000228881835938e+00,8.136682128906250000e+01
8.800000190734863281e+00,8.138822937011718750e+01
8.840000152587890625e+00,8.140102386474609375e+01
8.880000114440917969e+00,8.141241455078125000e+01
8.920000076293945312e+00,8.141436767578125000e+01
8.960000038146972656e+00,8.140313720703125000e+01
9.000000000000000000e+00,8.137552642822265625e+01
9.039999961853027344e+00,8.133813476562500000e+01
9.079999923706054688e+00,8.129937744140625000e+01
9.119999885559082031e+00,8.127457427978515625e+01
9.159999847412109375e+00,8.131656646728515625e+01
9.199999809265136719e+00,8.134624481201171875e+01
9.239999771118164062e+00,8.136354064941406250e+01
9.279999732971191406e+00,8.137924957275390625e+01
9.319999694824218750e+00,8.141807556152343750e+01
9.359999656677246094e+00,8.145532226562500000e+01
9.399999618530273438e+00,8.147605133056640625e+01
9.439999580383300781e+00,8.148023223876953125e+01
9.479999542236328125e+00,8.148277282714843750e+01
9.519999504089355469e+00,8.149983215332031250e+01
9.560000419616699219e+00,8.151530456542968750e+01
9.600000381469726562e+00,8.147102355957031250e+01
9.640000343322753906e+00,8.138363647460937500e+01
9.680000305175781250e+00,8.134508514404296875e+01
9.720000267028808594e+00,8.128063964843750000e+01
9.760000228881835938e+00,8.121446228027343750e+01
9.800000190734863281e+00,8.100828552246093750e+01
9.840000152587890625e+00,8.065931701660156250e+01
9.880000114440917969e+00,8.030046081542968750e+01
9.920000076293945312e+00,7.999234771728515625e+01
9.960000038146972656e+00,7.971806335449218750e+01
1.000000000000000000e+01,7.855570983886718750e+01
1.003999996185302734e+01,7.648560333251953125e+01
1.007999992370605469e+01,7.442115020751953125e+01
1.011999988555908203e+01,7.235147094726562500e+01
1.015999984741210938e+01,7.028881835937500000e+01
1.019999980926513672e+01,6.804813385009765625e+01
1.023999977111816406e+01,6.813809204101562500e+01
1.027999973297119141e+01,6.822596740722656250e+01
1.032000064849853516e+01,6.831987762451171875e+01
1.036000061035156250e+01,6.841181182861328125e+01
1.040000057220458984e+01,6.876681518554687500e+01
1.044000053405761719e+01,6.928665161132812500e+01
1.048000049591064453e+01,6.949902343750000000e+01
1.052000045776367188e+01,6.969381713867187500e+01
1.056000041961669922e+01,6.988697814941406250e+01
1.060000038146972656e+01,6.988076019287109375e+01
1.064000034332275391e+01,6.967607116699218750e+01
1.068000030517578125e+01,6.947063446044921875e+01
1.072000026702880859e+01,6.927336120605468750e+01
1.076000022888183594e+01,6.907539367675781250e+01
1.080000019073486328e+01,6.883753967285156250e+01
1.084000015258789062e+01,6.855531311035156250e+01
1.088000011444091797e+01,6.827053833007812500e+01
1.092000007629394531e+01,6.796949005126953125e+01
1.096000003814697266e+01,6.766844940185546875e+01
1.100000000000000000e+01,6.733104705810546875e+01
1.103999996185302734e+01,6.695757293701171875e+01
1.107999992370605469e+01,6.658464813232421875e+01
1.111999988555908203e+01,6.647406768798828125e+01
1.115999984741210938e+01,6.636300659179687500e+01
1.119999980926513672e+01,6.608711242675781250e+01
1.123999977111816406e+01,6.564672851562500000e+01
1.127999973297119141e+01,6.520631408691406250e+01
1.131999969482421875e+01,6.478378295898437500e+01
1.136000061035156250e+01,6.436102294921875000e+01
1.140000057220458984e+01,6.364183044433593750e+01
1.144000053405761719e+01,6.262542724609375000e+01
1.148000049591064453e+01,6.160763549804687500e+01
1.152000045776367188e+01,6.055870056152343750e+01
1.156000041961669922e+01,5.794012451171875000e+01
1.160000038146972656e+01,5.720941162109375000e+01
1.164000034332275391e+01,5.701166152954101562e+01
1.168000030517578125e+01,5.681213378906250000e+01
1.172000026702880859e+01,5.659646606445312500e+01
1.176000022888183594e+01,5.637839508056640625e+01
1.180000019073486328e+01,5.612792968750000000e+01
1.184000015258789062e+01,5.584623718261718750e+01
1.188000011444091797e+01,5.556448364257812500e+01
1.192000007629394531e+01,5.526438522338867188e+01
1.196000003814697266e+01,5.496262741088867188e+01
1.200000000000000000e+01,5.462116622924804688e+01
1.203999996185302734e+01,5.424027252197265625e+01
1.207999992370605469e+01,5.397887420654296875e+01
1.211999988555908203e+01,5.408854293823242188e+01
1.215999984741210938e+01,5.419809722900390625e+01
1.219999980926513672e+01,5.428150177001953125e+01
1.223999977111816406e+01,5.433860397338867188e+01
1.227999973297119141e+01,5.439547729492187500e+01
1.231999969482421875e+01,5.444112396240234375e+01
1.236000061035156250e+01,5.448657608032226562e+01
1.240000057220458984e+01,5.449596786499023438e+01
1.244000053405761719e+01,5.446942901611328125e+01
1.248000049591064453e+01,5.444255828857421875e+01
1.252000045776367188e+01,5.439199829101562500e+01
1.256000041961669922e+01,5.434126281738281250e+01
1.260000038146972656e+01,5.427110671997070312e+01
1.264000034332275391e+01,5.418161773681640625e+01
1.268000030517578125e+01,5.409197235107421875e+01
1.272000026702880859e+01,5.401179504394531250e+01
1.276000022888183594e+01,5.393138885498046875e+01
1.280000019073486328e+01,5.383890533447265625e+01
1.284000015258789062e+01,5.373435592651367188e+01
1.288000011444091797e+01,5.362981414794921875e+01
1.292000007629394531e+01,5.352484130859375000e+01
1.296000003814697266e+01,5.341970825195312500e+01
1.300000000000000000e+01,5.326367950439453125e+01
1.303999996185302734e+01,5.305684661865234375e+01
1.307999992370605469e+01,5.285009002685546875e+01
1.311999988555908203e+01,5.264472961425781250e+01
1.315999984741210938e+01,5.243872833251953125e+01
1.319999980926513672e+01,5.220386505126953125e+01
1.323999977111816406e+01,5.194039916992187500e+01
1.327999973297119141e+01,5.165367889404296875e+01
1.331999969482421875e+01,5.089352416992187500e+01
1.335999965667724609e+01,5.063636779785156250e+01
1.340000057220458984e+01,5.046503067016601562e+01
1.344000053405761719e+01,5.035589599609375000e+01
1.348000049591064453e+01,5.024645996093750000e+01
1.352000045776367188e+01,5.012025833129882812e+01
1.356000041961669922e+01,4.999389648437500000e+01
1.360000038146972656e+01,4.985144424438476562e+01
1.364000034332275391e+01,4.969302368164062500e+01
1.368000030517578125e+01,4.953430557250976562e+01
1.372000026702880859e+01,4.940714263916015625e+01
1.376000022888183594e+01,4.927960968017578125e+01
1.380000019073486328e+01,4.913883209228515625e+01
1.384000015258789062e+01,4.881595993041992188e+01
1.388000011444091797e+01,4.866148376464843750e+01
1.392000007629394531e+01,4.856915283203125000e+01
1.396000003814697266e+01,4.847695922851562500e+01
1.400000000000000000e+01,4.839402770996093750e+01
1.403999996185302734e+01,4.832039260864257812e+01
1.407999992370605469e+01,4.824655914306640625e+01
1.411999988555908203e+01,4.819064331054687500e+01
1.415999984741210938e+01,4.813448333740234375e+01
1.419999980926513672e+01,4.807710266113281250e+01
1.423999977111816406e+01,4.801850128173828125e+01
1.427999973297119141e+01,4.795966339111328125e+01
1.431999969482421875e+01,4.789519119262695312e+01
1.435999965667724609e+01,4.783052825927734375e+01
1.439999961853027344e+01,4.776067352294921875e+01
1.444000053405761719e+01,4.768412017822265625e+01
1.448000049591064453e+01,4.760745239257812500e+01
1.452000045776367188e+01,4.754143524169921875e+01
1.456000041961669922e+01,4.747518157958984375e+01
1.460000038146972656e+01,4.740804290771484375e+01
1.464000034332275391e+01,4.733998870849609375e+01
1.468000030517578125e+01,4.727172851562500000e+01
1.472000026702880859e+01,4.717986297607421875e+01
1.476000022888183594e+01,4.708787536621093750e+01
1.480000019073486328e+01,4.699510955810546875e+01
1.484000015258789062e+01,4.690154266357421875e+01
1.488000011444091797e+01,4.680775451660156250e+01
1.492000007629394531e+01,4.670753860473632812e+01
1.496000003814697266e+01,4.660721969604492188e+01
1.500000000000000000e+01,4.650717926025390625e+01
1.503999996185302734e+01,4.640737915039062500e+01
1.507999992370605469e+01,4.630746078491210938e+01
1.511999988555908203e+01,4.624378967285156250e+01
1.515999984741210938e+01,4.617988586425781250e+01
1.519999980926513672e+01,4.611412048339843750e+01
1.523999977111816406e+01,4.604650878906250000e+01
1.527999973297119141e+01,4.597862243652343750e+01
1.531999969482421875e+01,4.587695693969726562e+01
1.535999965667724609e+01,4.577516937255859375e+01
1.539999961853027344e+01,4.567337799072265625e+01
1.544000053405761719e+01,4.557159042358398438e+01
1.548000049591064453e+01,4.546968078613281250e+01
1.552000045776367188e+01,4.539681243896484375e+01
1.556000041961669922e+01,4.532366561889648438e+01
1.560000038146972656e+01,4.525273895263671875e+01
1.564000034332275391e+01,4.518399810791015625e+01
1.568000030517578125e+01,4.511500549316406250e+01
1.572000026702880859e+01,4.502767944335937500e+01
1.576000022888183594e+01,4.494013595581054688e+01
1.580000019073486328e+01,4.484938049316406250e+01
1.584000015258789062e+01,4.475540161132812500e+01
1.588000011444091797e+01,4.466035842895507812e+01
1.592000007629394531e+01,4.458505249023437500e+01
1.596000003814697266e+01,4.450946044921875000e+01
1.600000000000000000e+01,4.443185424804687500e+01
1.603999900817871094e+01,4.435221099853515625e+01
1.607999992370605469e+01,4.427230834960937500e+01
1.611999893188476562e+01,4.417458343505859375e+01
1.615999984741210938e+01,4.407667541503906250e+01
1.619999885559082031e+01,4.397859954833984375e+01
1.623999977111816406e+01,4.388033294677734375e+01
1.627999877929687500e+01,4.378190612792968750e+01
1.631999969482421875e+01,4.368970108032226562e+01
1.635999870300292969e+01,4.359729766845703125e+01
1.639999961853027344e+01,4.350469970703125000e+01
1.643999862670898438e+01,4.341191864013671875e+01
1.647999954223632812e+01,4.331890869140625000e+01
1.652000045776367188e+01,4.321802520751953125e+01
1.655999946594238281e+01,4.311700820922851562e+01
1.660000038146972656e+01,4.301584625244140625e+01
1.663999938964843750e+01,4.291452789306640625e+01
1.668000030517578125e+01,4.281306076049804688e+01
1.671999931335449219e+01,4.270763397216796875e+01
1.676000022888183594e+01,4.260207366943359375e+01
1.679999923706054688e+01,4.249638366699218750e+01
1.684000015258789062e+01,4.239055633544921875e+01
1.687999916076660156e+01,4.228460693359375000e+01
1.692000007629394531e+01,4.219059371948242188e+01
1.695999908447265625e+01,4.209640884399414062e+01
1.700000000000000000e+01,4.200151824951171875e+01
1.703999900817871094e+01,4.190591049194335938e+01
1.707999992370605469e+01,4.181015777587890625e+01
1.711999893188476562e+01,4.171674346923828125e+01
1.715999984741210938e+01,4.162316131591796875e+01
1.719999885559082031e+01,4.152946472167968750e+01
1.723999977111816406e+01,4.143563079833984375e+01
1.727999877929687500e+01,4.131885147094726562e+01
1.731999969482421875e+01,4.117444229125976562e+01
1.735999870300292969e+01,4.103022384643554688e+01
1.739999961853027344e+01,4.088614273071289062e+01
1.743999862670898438e+01,4.074206542968750000e+01
1.747999954223632812e+01,4.059768676757812500e+01
